Today's Date 03/07/2018  Date of Test:	11/02/2016	 Filename:	C:\Mims Data\Backup\DESKTOP-RUS2E13\4267-66-6519.041 Procedure: EIS 1.000FRA default	Comment/Barcode: 
Rec#	Cyc#	Step	TestTime	StepTime	Amp-hr	Watt-hr	Amps	Volts	State	ES	DPt Time	ACImp/Ohms	DCIR/Ohms	WF Chg Cap	WF Dis Cap	WF Chg E	WF Dis E	Range	VAR1	VAR2	VAR3	VAR4	VAR5	VAR6	VAR7	VAR8	VAR9	VAR10	VAR11	VAR12	VAR13	VAR14	VAR15
1	0	1	  0d 00:00:00.0000	  0d 00:00:00.0000	0.0000000000	0.0000000000	0.0000000000	3.90806439	R	0	11/02/2016 15:57:53	0.00000	0.00000	N/A	N/A	N/A	N/A	1	0.00000	0.00000	0.00000	0.00000	0.00000	0.00000	0.00000	0.00000	0.00000	0.00000	0.00000	0.00000	0.00000	0.00000	0.00000
2	0	1	  0d 00:00:01.0000	  0d 00:00:01.0000	0.0000000000	0.0000000000	0.0000000000	3.91096361	R	1	11/02/2016 15:57:54	0.00000	0.00000	N/A	N/A	N/A	N/A	1	0.00000	0.00000	0.00000	0.00000	0.00000	0.00000	0.00000	0.00000	0.00000	0.00000	0.00000	0.00000	0.00000	0.00000	0.00000
3	0	1	  0d 00:00:02.0000	  0d 00:00:02.0000	0.0000000000	0.0000000000	0.0000000000	3.91081102	R	1	11/02/2016 15:57:55	0.00000	0.00000	N/A	N/A	N/A	N/A	1	0.00000	0.00000	0.00000	0.00000	0.00000	0.00000	0.00000	0.00000	0.00000	0.00000	0.00000	0.00000	0.00000	0.00000	0.00000
4	0	1	  0d 00:00:03.0000	  0d 00:00:03.0000	0.0000000000	0.0000000000	0.0000000000	3.91126879	R	1	11/02/2016 15:57:56	0.00000	0.00000	N/A	N/A	N/A	N/A	1	0.00000	0.00000	0.00000	0.00000	0.00000	0.00000	0.00000	0.00000	0.00000	0.00000	0.00000	0.00000	0.00000	0.00000	0.00000
5	0	1	  0d 00:00:04.0000	  0d 00:00:04.0000	0.0000000000	0.0000000000	0.0000000000	3.91081102	R	1	11/02/2016 15:57:57	0.00000	0.00000	N/A	N/A	N/A	N/A	1	0.00000	0.00000	0.00000	0.00000	0.00000	0.00000	0.00000	0.00000	0.00000	0.00000	0.00000	0.00000	0.00000	0.00000	0.00000
6	0	1	  0d 00:00:05.0000	  0d 00:00:05.0000	0.0000000000	0.0000000000	0.0000000000	3.91111620	R	1	11/02/2016 15:57:58	0.00000	0.00000	N/A	N/A	N/A	N/A	1	0.00000	0.00000	0.00000	0.00000	0.00000	0.00000	0.00000	0.00000	0.00000	0.00000	0.00000	0.00000	0.00000	0.00000	0.00000
7	0	1	  0d 00:00:06.0000	  0d 00:00:06.0000	0.0000000000	0.0000000000	0.0000000000	3.91142138	R	1	11/02/2016 15:57:59	0.00000	0.00000	N/A	N/A	N/A	N/A	1	0.00000	0.00000	0.00000	0.00000	0.00000	0.00000	0.00000	0.00000	0.00000	0.00000	0.00000	0.00000	0.00000	0.00000	0.00000
8	0	1	  0d 00:00:07.0000	  0d 00:00:07.0000	0.0000000000	0.0000000000	0.0000000000	3.91111620	R	1	11/02/2016 15:58:00	0.00000	0.00000	N/A	N/A	N/A	N/A	1	0.00000	0.00000	0.00000	0.00000	0.00000	0.00000	0.00000	0.00000	0.00000	0.00000	0.00000	0.00000	0.00000	0.00000	0.00000
9	0	1	  0d 00:00:08.0000	  0d 00:00:08.0000	0.0000000000	0.0000000000	0.0000000000	3.91157397	R	1	11/02/2016 15:58:01	0.00000	0.00000	N/A	N/A	N/A	N/A	1	0.00000	0.00000	0.00000	0.00000	0.00000	0.00000	0.00000	0.00000	0.00000	0.00000	0.00000	0.00000	0.00000	0.00000	0.00000
10	0	1	  0d 00:00:09.0000	  0d 00:00:09.0000	0.0000000000	0.0000000000	0.0000000000	3.91111620	R	1	11/02/2016 15:58:02	0.00000	0.00000	N/A	N/A	N/A	N/A	1	0.00000	0.00000	0.00000	0.00000	0.00000	0.00000	0.00000	0.00000	0.00000	0.00000	0.00000	0.00000	0.00000	0.00000	0.00000
11	0	1	  0d 00:00:10.0000	  0d 00:00:10.0000	0.0000000000	0.0000000000	0.0000000000	3.91126879	R	129	11/02/2016 15:58:03	0.00000	0.00000	N/A	N/A	N/A	N/A	1	0.00000	0.00000	0.00000	0.00000	0.00000	0.00000	0.00000	0.00000	0.00000	0.00000	0.00000	0.00000	0.00000	0.00000	0.00000
12	0	2	  0d 00:00:10.0000	  0d 00:00:10.0000	0.0000000000	0.0000000000	0.0000000000	3.91157397	FRA	17	11/02/2016 15:58:03	0.00000	0.00000	N/A	N/A	N/A	N/A	1	0.00000	0.00000	0.00000	0.00000	0.00000	0.00000	0.00000	0.00000	0.00000	0.00000	0.00000	0.00000	0.00000	0.00000	0.00000
12	0	2	  0d 00:00:10.0000	  0d 00:00:00.0000	0.0000000000	0.0000000000	0.0000000000	3.90989548	FRA	17	11/02/2016 15:59:05	0.00000	0.00000	N/A	N/A	N/A	N/A	1	0.00000	0.00000	0.00000	0.00000	0.00000	0.00000	0.00000	0.00000	0.00000	0.00000	0.00000	0.00000	0.00000	0.00000	0.00000
12	0	2	  0d 00:00:10.0000	  0d 00:00:00.0000	0.0000000000	0.0000000000	0.0000000000	3.90989548	FRA	17	11/02/2016 15:59:18	0.00000	0.00000	N/A	N/A	N/A	N/A	1	0.00000	0.00000	0.00000	0.00000	0.00000	0.00000	0.00000	0.00000	0.00000	0.00000	0.00000	0.00000	0.00000	0.00000	0.00000
12	0	2	  0d 00:00:10.0000	  0d 00:00:00.0000	0.0000000000	0.0000000000	0.0000000000	3.90989548	FRA	17	11/02/2016 15:59:31	0.00000	0.00000	N/A	N/A	N/A	N/A	1	0.00000	0.00000	0.00000	0.00000	0.00000	0.00000	0.00000	0.00000	0.00000	0.00000	0.00000	0.00000	0.00000	0.00000	0.00000
12	0	2	  0d 00:00:10.0000	  0d 00:00:00.0000	0.0000000000	0.0000000000	0.0000000000	3.90989548	FRA	17	11/02/2016 15:59:38	0.00000	0.00000	N/A	N/A	N/A	N/A	1	0.00000	0.00000	0.00000	0.00000	0.00000	0.00000	0.00000	0.00000	0.00000	0.00000	0.00000	0.00000	0.00000	0.00000	0.00000
12	0	2	  0d 00:00:10.0000	  0d 00:00:00.0000	0.0000000000	0.0000000000	0.0000000000	3.90989548	FRA	17	11/02/2016 15:59:42	0.00000	0.00000	N/A	N/A	N/A	N/A	1	0.00000	0.00000	0.00000	0.00000	0.00000	0.00000	0.00000	0.00000	0.00000	0.00000	0.00000	0.00000	0.00000	0.00000	0.00000
12	0	2	  0d 00:00:10.0000	  0d 00:00:00.0000	0.0000000000	0.0000000000	0.0000000000	3.90989548	FRA	17	11/02/2016 15:59:45	0.00000	0.00000	N/A	N/A	N/A	N/A	1	0.00000	0.00000	0.00000	0.00000	0.00000	0.00000	0.00000	0.00000	0.00000	0.00000	0.00000	0.00000	0.00000	0.00000	0.00000
12	0	2	  0d 00:00:10.0000	  0d 00:00:00.0000	0.0000000000	0.0000000000	0.0000000000	3.90989548	FRA	17	11/02/2016 15:59:48	0.00000	0.00000	N/A	N/A	N/A	N/A	1	0.00000	0.00000	0.00000	0.00000	0.00000	0.00000	0.00000	0.00000	0.00000	0.00000	0.00000	0.00000	0.00000	0.00000	0.00000
12	0	2	  0d 00:00:10.0000	  0d 00:00:00.0000	0.0000000000	0.0000000000	0.0000000000	3.90989548	FRA	17	11/02/2016 15:59:49	0.00000	0.00000	N/A	N/A	N/A	N/A	1	0.00000	0.00000	0.00000	0.00000	0.00000	0.00000	0.00000	0.00000	0.00000	0.00000	0.00000	0.00000	0.00000	0.00000	0.00000
12	0	2	  0d 00:00:10.0000	  0d 00:00:00.0000	0.0000000000	0.0000000000	0.0000000000	3.90989548	FRA	17	11/02/2016 15:59:52	0.00000	0.00000	N/A	N/A	N/A	N/A	1	0.00000	0.00000	0.00000	0.00000	0.00000	0.00000	0.00000	0.00000	0.00000	0.00000	0.00000	0.00000	0.00000	0.00000	0.00000
12	0	2	  0d 00:00:10.0000	  0d 00:00:00.0000	0.0000000000	0.0000000000	0.0000000000	3.90989548	FRA	17	11/02/2016 15:59:54	0.00000	0.00000	N/A	N/A	N/A	N/A	1	0.00000	0.00000	0.00000	0.00000	0.00000	0.00000	0.00000	0.00000	0.00000	0.00000	0.00000	0.00000	0.00000	0.00000	0.00000
12	0	2	  0d 00:00:10.0000	  0d 00:00:00.0000	0.0000000000	0.0000000000	0.0000000000	3.90989548	FRA	17	11/02/2016 15:59:55	0.00000	0.00000	N/A	N/A	N/A	N/A	1	0.00000	0.00000	0.00000	0.00000	0.00000	0.00000	0.00000	0.00000	0.00000	0.00000	0.00000	0.00000	0.00000	0.00000	0.00000
12	0	2	  0d 00:00:10.0000	  0d 00:00:00.0000	0.0000000000	0.0000000000	0.0000000000	3.90989548	FRA	17	11/02/2016 15:59:57	0.00000	0.00000	N/A	N/A	N/A	N/A	1	0.00000	0.00000	0.00000	0.00000	0.00000	0.00000	0.00000	0.00000	0.00000	0.00000	0.00000	0.00000	0.00000	0.00000	0.00000
12	0	2	  0d 00:00:10.0000	  0d 00:00:00.0000	0.0000000000	0.0000000000	0.0000000000	3.90989548	FRA	17	11/02/2016 15:59:59	0.00000	0.00000	N/A	N/A	N/A	N/A	1	0.00000	0.00000	0.00000	0.00000	0.00000	0.00000	0.00000	0.00000	0.00000	0.00000	0.00000	0.00000	0.00000	0.00000	0.00000
12	0	2	  0d 00:00:10.0000	  0d 00:00:00.0000	0.0000000000	0.0000000000	0.0000000000	3.90989548	FRA	17	11/02/2016 16:00:01	0.00000	0.00000	N/A	N/A	N/A	N/A	1	0.00000	0.00000	0.00000	0.00000	0.00000	0.00000	0.00000	0.00000	0.00000	0.00000	0.00000	0.00000	0.00000	0.00000	0.00000
12	0	2	  0d 00:00:10.0000	  0d 00:00:00.0000	0.0000000000	0.0000000000	0.0000000000	3.90989548	FRA	17	11/02/2016 16:00:03	0.00000	0.00000	N/A	N/A	N/A	N/A	1	0.00000	0.00000	0.00000	0.00000	0.00000	0.00000	0.00000	0.00000	0.00000	0.00000	0.00000	0.00000	0.00000	0.00000	0.00000
12	0	2	  0d 00:00:10.0000	  0d 00:00:00.0000	0.0000000000	0.0000000000	0.0000000000	3.90989548	FRA	17	11/02/2016 16:00:04	0.00000	0.00000	N/A	N/A	N/A	N/A	1	0.00000	0.00000	0.00000	0.00000	0.00000	0.00000	0.00000	0.00000	0.00000	0.00000	0.00000	0.00000	0.00000	0.00000	0.00000
12	0	2	  0d 00:00:10.0000	  0d 00:00:00.0000	0.0000000000	0.0000000000	0.0000000000	3.90989548	FRA	17	11/02/2016 16:00:06	0.00000	0.00000	N/A	N/A	N/A	N/A	1	0.00000	0.00000	0.00000	0.00000	0.00000	0.00000	0.00000	0.00000	0.00000	0.00000	0.00000	0.00000	0.00000	0.00000	0.00000
12	0	2	  0d 00:00:10.0000	  0d 00:00:00.0000	0.0000000000	0.0000000000	0.0000000000	3.90989548	FRA	17	11/02/2016 16:00:09	0.00000	0.00000	N/A	N/A	N/A	N/A	1	0.00000	0.00000	0.00000	0.00000	0.00000	0.00000	0.00000	0.00000	0.00000	0.00000	0.00000	0.00000	0.00000	0.00000	0.00000
12	0	2	  0d 00:00:10.0000	  0d 00:00:00.0000	0.0000000000	0.0000000000	0.0000000000	3.90989548	FRA	17	11/02/2016 16:00:11	0.00000	0.00000	N/A	N/A	N/A	N/A	1	0.00000	0.00000	0.00000	0.00000	0.00000	0.00000	0.00000	0.00000	0.00000	0.00000	0.00000	0.00000	0.00000	0.00000	0.00000
12	0	2	  0d 00:00:10.0000	  0d 00:00:00.0000	0.0000000000	0.0000000000	0.0000000000	3.90989548	FRA	17	11/02/2016 16:00:12	0.00000	0.00000	N/A	N/A	N/A	N/A	1	0.00000	0.00000	0.00000	0.00000	0.00000	0.00000	0.00000	0.00000	0.00000	0.00000	0.00000	0.00000	0.00000	0.00000	0.00000
12	0	2	  0d 00:00:10.0000	  0d 00:00:00.0000	0.0000000000	0.0000000000	0.0000000000	3.90989548	FRA	17	11/02/2016 16:00:14	0.00000	0.00000	N/A	N/A	N/A	N/A	1	0.00000	0.00000	0.00000	0.00000	0.00000	0.00000	0.00000	0.00000	0.00000	0.00000	0.00000	0.00000	0.00000	0.00000	0.00000
12	0	2	  0d 00:00:10.0000	  0d 00:00:00.0000	0.0000000000	0.0000000000	0.0000000000	3.90989548	FRA	17	11/02/2016 16:00:16	0.00000	0.00000	N/A	N/A	N/A	N/A	1	0.00000	0.00000	0.00000	0.00000	0.00000	0.00000	0.00000	0.00000	0.00000	0.00000	0.00000	0.00000	0.00000	0.00000	0.00000
12	0	2	  0d 00:00:10.0000	  0d 00:00:00.0000	0.0000000000	0.0000000000	0.0000000000	3.90989548	FRA	17	11/02/2016 16:00:18	0.00000	0.00000	N/A	N/A	N/A	N/A	1	0.00000	0.00000	0.00000	0.00000	0.00000	0.00000	0.00000	0.00000	0.00000	0.00000	0.00000	0.00000	0.00000	0.00000	0.00000
12	0	2	  0d 00:00:10.0000	  0d 00:00:00.0000	0.0000000000	0.0000000000	0.0000000000	3.90989548	FRA	17	11/02/2016 16:00:20	0.00000	0.00000	N/A	N/A	N/A	N/A	1	0.00000	0.00000	0.00000	0.00000	0.00000	0.00000	0.00000	0.00000	0.00000	0.00000	0.00000	0.00000	0.00000	0.00000	0.00000
12	0	2	  0d 00:00:10.0000	  0d 00:00:00.0000	0.0000000000	0.0000000000	0.0000000000	3.90989548	FRA	17	11/02/2016 16:00:21	0.00000	0.00000	N/A	N/A	N/A	N/A	1	0.00000	0.00000	0.00000	0.00000	0.00000	0.00000	0.00000	0.00000	0.00000	0.00000	0.00000	0.00000	0.00000	0.00000	0.00000
12	0	2	  0d 00:00:10.0000	  0d 00:00:00.0000	0.0000000000	0.0000000000	0.0000000000	3.90989548	FRA	17	11/02/2016 16:00:23	0.00000	0.00000	N/A	N/A	N/A	N/A	1	0.00000	0.00000	0.00000	0.00000	0.00000	0.00000	0.00000	0.00000	0.00000	0.00000	0.00000	0.00000	0.00000	0.00000	0.00000
12	0	2	  0d 00:00:10.0000	  0d 00:00:00.0000	0.0000000000	0.0000000000	0.0000000000	3.90989548	FRA	17	11/02/2016 16:00:25	0.00000	0.00000	N/A	N/A	N/A	N/A	1	0.00000	0.00000	0.00000	0.00000	0.00000	0.00000	0.00000	0.00000	0.00000	0.00000	0.00000	0.00000	0.00000	0.00000	0.00000
12	0	2	  0d 00:00:10.0000	  0d 00:00:00.0000	0.0000000000	0.0000000000	0.0000000000	3.90989548	FRA	17	11/02/2016 16:00:27	0.00000	0.00000	N/A	N/A	N/A	N/A	1	0.00000	0.00000	0.00000	0.00000	0.00000	0.00000	0.00000	0.00000	0.00000	0.00000	0.00000	0.00000	0.00000	0.00000	0.00000
12	0	2	  0d 00:00:10.0000	  0d 00:00:00.0000	0.0000000000	0.0000000000	0.0000000000	3.90989548	FRA	17	11/02/2016 16:00:29	0.00000	0.00000	N/A	N/A	N/A	N/A	1	0.00000	0.00000	0.00000	0.00000	0.00000	0.00000	0.00000	0.00000	0.00000	0.00000	0.00000	0.00000	0.00000	0.00000	0.00000
12	0	2	  0d 00:00:10.0000	  0d 00:00:00.0000	0.0000000000	0.0000000000	0.0000000000	3.90989548	FRA	17	11/02/2016 16:00:31	0.00000	0.00000	N/A	N/A	N/A	N/A	1	0.00000	0.00000	0.00000	0.00000	0.00000	0.00000	0.00000	0.00000	0.00000	0.00000	0.00000	0.00000	0.00000	0.00000	0.00000
12	0	2	  0d 00:00:10.0000	  0d 00:00:00.0000	0.0000000000	0.0000000000	0.0000000000	3.90989548	FRA	17	11/02/2016 16:00:33	0.00000	0.00000	N/A	N/A	N/A	N/A	1	0.00000	0.00000	0.00000	0.00000	0.00000	0.00000	0.00000	0.00000	0.00000	0.00000	0.00000	0.00000	0.00000	0.00000	0.00000
12	0	2	  0d 00:00:10.0000	  0d 00:00:00.0000	0.0000000000	0.0000000000	0.0000000000	3.90989548	FRA	17	11/02/2016 16:00:35	0.00000	0.00000	N/A	N/A	N/A	N/A	1	0.00000	0.00000	0.00000	0.00000	0.00000	0.00000	0.00000	0.00000	0.00000	0.00000	0.00000	0.00000	0.00000	0.00000	0.00000
12	0	2	  0d 00:00:10.0000	  0d 00:00:00.0000	0.0000000000	0.0000000000	0.0000000000	3.90989548	FRA	17	11/02/2016 16:00:37	0.00000	0.00000	N/A	N/A	N/A	N/A	1	0.00000	0.00000	0.00000	0.00000	0.00000	0.00000	0.00000	0.00000	0.00000	0.00000	0.00000	0.00000	0.00000	0.00000	0.00000
12	0	2	  0d 00:00:10.0000	  0d 00:00:00.0000	0.0000000000	0.0000000000	0.0000000000	3.90989548	FRA	17	11/02/2016 16:00:39	0.00000	0.00000	N/A	N/A	N/A	N/A	1	0.00000	0.00000	0.00000	0.00000	0.00000	0.00000	0.00000	0.00000	0.00000	0.00000	0.00000	0.00000	0.00000	0.00000	0.00000
12	0	2	  0d 00:00:10.0000	  0d 00:00:00.0000	0.0000000000	0.0000000000	0.0000000000	3.90989548	FRA	17	11/02/2016 16:00:41	0.00000	0.00000	N/A	N/A	N/A	N/A	1	0.00000	0.00000	0.00000	0.00000	0.00000	0.00000	0.00000	0.00000	0.00000	0.00000	0.00000	0.00000	0.00000	0.00000	0.00000
12	0	2	  0d 00:00:10.0000	  0d 00:00:00.0000	0.0000000000	0.0000000000	0.0000000000	3.90989548	FRA	17	11/02/2016 16:00:43	0.00000	0.00000	N/A	N/A	N/A	N/A	1	0.00000	0.00000	0.00000	0.00000	0.00000	0.00000	0.00000	0.00000	0.00000	0.00000	0.00000	0.00000	0.00000	0.00000	0.00000
12	0	2	  0d 00:00:10.0000	  0d 00:00:00.0000	0.0000000000	0.0000000000	0.0000000000	3.90989548	FRA	17	11/02/2016 16:00:45	0.00000	0.00000	N/A	N/A	N/A	N/A	1	0.00000	0.00000	0.00000	0.00000	0.00000	0.00000	0.00000	0.00000	0.00000	0.00000	0.00000	0.00000	0.00000	0.00000	0.00000
12	0	2	  0d 00:00:10.0000	  0d 00:00:00.0000	0.0000000000	0.0000000000	0.0000000000	3.90989548	FRA	17	11/02/2016 16:00:47	0.00000	0.00000	N/A	N/A	N/A	N/A	1	0.00000	0.00000	0.00000	0.00000	0.00000	0.00000	0.00000	0.00000	0.00000	0.00000	0.00000	0.00000	0.00000	0.00000	0.00000
12	0	2	  0d 00:00:10.0000	  0d 00:00:00.0000	0.0000000000	0.0000000000	0.0000000000	3.90989548	FRA	17	11/02/2016 16:00:49	0.00000	0.00000	N/A	N/A	N/A	N/A	1	0.00000	0.00000	0.00000	0.00000	0.00000	0.00000	0.00000	0.00000	0.00000	0.00000	0.00000	0.00000	0.00000	0.00000	0.00000
12	0	2	  0d 00:00:10.0000	  0d 00:00:00.0000	0.0000000000	0.0000000000	0.0000000000	3.90989548	FRA	17	11/02/2016 16:00:52	0.00000	0.00000	N/A	N/A	N/A	N/A	1	0.00000	0.00000	0.00000	0.00000	0.00000	0.00000	0.00000	0.00000	0.00000	0.00000	0.00000	0.00000	0.00000	0.00000	0.00000
12	0	2	  0d 00:00:10.0000	  0d 00:00:00.0000	0.0000000000	0.0000000000	0.0000000000	3.90989548	FRA	17	11/02/2016 16:00:55	0.00000	0.00000	N/A	N/A	N/A	N/A	1	0.00000	0.00000	0.00000	0.00000	0.00000	0.00000	0.00000	0.00000	0.00000	0.00000	0.00000	0.00000	0.00000	0.00000	0.00000
12	0	2	  0d 00:00:10.0000	  0d 00:00:00.0000	0.0000000000	0.0000000000	0.0000000000	3.90989548	FRA	17	11/02/2016 16:00:58	0.00000	0.00000	N/A	N/A	N/A	N/A	1	0.00000	0.00000	0.00000	0.00000	0.00000	0.00000	0.00000	0.00000	0.00000	0.00000	0.00000	0.00000	0.00000	0.00000	0.00000
12	0	2	  0d 00:00:10.0000	  0d 00:00:00.0000	0.0000000000	0.0000000000	0.0000000000	3.90989548	FRA	17	11/02/2016 16:01:00	0.00000	0.00000	N/A	N/A	N/A	N/A	1	0.00000	0.00000	0.00000	0.00000	0.00000	0.00000	0.00000	0.00000	0.00000	0.00000	0.00000	0.00000	0.00000	0.00000	0.00000
12	0	2	  0d 00:00:10.0000	  0d 00:00:00.0000	0.0000000000	0.0000000000	0.0000000000	3.90989548	FRA	17	11/02/2016 16:01:03	0.00000	0.00000	N/A	N/A	N/A	N/A	1	0.00000	0.00000	0.00000	0.00000	0.00000	0.00000	0.00000	0.00000	0.00000	0.00000	0.00000	0.00000	0.00000	0.00000	0.00000
12	0	2	  0d 00:00:10.0000	  0d 00:00:00.0000	0.0000000000	0.0000000000	0.0000000000	3.90989548	FRA	17	11/02/2016 16:01:06	0.00000	0.00000	N/A	N/A	N/A	N/A	1	0.00000	0.00000	0.00000	0.00000	0.00000	0.00000	0.00000	0.00000	0.00000	0.00000	0.00000	0.00000	0.00000	0.00000	0.00000
12	0	2	  0d 00:00:10.0000	  0d 00:00:00.0000	0.0000000000	0.0000000000	0.0000000000	3.90989548	FRA	17	11/02/2016 16:01:08	0.00000	0.00000	N/A	N/A	N/A	N/A	1	0.00000	0.00000	0.00000	0.00000	0.00000	0.00000	0.00000	0.00000	0.00000	0.00000	0.00000	0.00000	0.00000	0.00000	0.00000
12	0	2	  0d 00:00:10.0000	  0d 00:00:00.0000	0.0000000000	0.0000000000	0.0000000000	3.90989548	FRA	17	11/02/2016 16:01:11	0.00000	0.00000	N/A	N/A	N/A	N/A	1	0.00000	0.00000	0.00000	0.00000	0.00000	0.00000	0.00000	0.00000	0.00000	0.00000	0.00000	0.00000	0.00000	0.00000	0.00000
12	0	2	  0d 00:00:10.0000	  0d 00:00:00.0000	0.0000000000	0.0000000000	0.0000000000	3.90989548	FRA	17	11/02/2016 16:01:14	0.00000	0.00000	N/A	N/A	N/A	N/A	1	0.00000	0.00000	0.00000	0.00000	0.00000	0.00000	0.00000	0.00000	0.00000	0.00000	0.00000	0.00000	0.00000	0.00000	0.00000
12	0	2	  0d 00:00:10.0000	  0d 00:00:00.0000	0.0000000000	0.0000000000	0.0000000000	3.90989548	FRA	17	11/02/2016 16:01:18	0.00000	0.00000	N/A	N/A	N/A	N/A	1	0.00000	0.00000	0.00000	0.00000	0.00000	0.00000	0.00000	0.00000	0.00000	0.00000	0.00000	0.00000	0.00000	0.00000	0.00000
12	0	2	  0d 00:00:10.0000	  0d 00:00:00.0000	0.0000000000	0.0000000000	0.0000000000	3.90989548	FRA	17	11/02/2016 16:01:23	0.00000	0.00000	N/A	N/A	N/A	N/A	1	0.00000	0.00000	0.00000	0.00000	0.00000	0.00000	0.00000	0.00000	0.00000	0.00000	0.00000	0.00000	0.00000	0.00000	0.00000
12	0	2	  0d 00:00:10.0000	  0d 00:00:00.0000	0.0000000000	0.0000000000	0.0000000000	3.90989548	FRA	17	11/02/2016 16:01:27	0.00000	0.00000	N/A	N/A	N/A	N/A	1	0.00000	0.00000	0.00000	0.00000	0.00000	0.00000	0.00000	0.00000	0.00000	0.00000	0.00000	0.00000	0.00000	0.00000	0.00000
12	0	2	  0d 00:00:10.0000	  0d 00:00:00.0000	0.0000000000	0.0000000000	0.0000000000	3.90989548	FRA	17	11/02/2016 16:01:33	0.00000	0.00000	N/A	N/A	N/A	N/A	1	0.00000	0.00000	0.00000	0.00000	0.00000	0.00000	0.00000	0.00000	0.00000	0.00000	0.00000	0.00000	0.00000	0.00000	0.00000
12	0	2	  0d 00:00:10.0000	  0d 00:00:00.0000	0.0000000000	0.0000000000	0.0000000000	3.90989548	FRA	17	11/02/2016 16:01:39	0.00000	0.00000	N/A	N/A	N/A	N/A	1	0.00000	0.00000	0.00000	0.00000	0.00000	0.00000	0.00000	0.00000	0.00000	0.00000	0.00000	0.00000	0.00000	0.00000	0.00000
12	0	2	  0d 00:00:10.0000	  0d 00:00:00.0000	0.0000000000	0.0000000000	0.0000000000	3.90989548	FRA	17	11/02/2016 16:01:46	0.00000	0.00000	N/A	N/A	N/A	N/A	1	0.00000	0.00000	0.00000	0.00000	0.00000	0.00000	0.00000	0.00000	0.00000	0.00000	0.00000	0.00000	0.00000	0.00000	0.00000
12	0	2	  0d 00:00:10.0000	  0d 00:00:00.0000	0.0000000000	0.0000000000	0.0000000000	3.90989548	FRA	17	11/02/2016 16:01:55	0.00000	0.00000	N/A	N/A	N/A	N/A	1	0.00000	0.00000	0.00000	0.00000	0.00000	0.00000	0.00000	0.00000	0.00000	0.00000	0.00000	0.00000	0.00000	0.00000	0.00000
12	0	2	  0d 00:00:10.0000	  0d 00:00:00.0000	0.0000000000	0.0000000000	0.0000000000	3.90989548	FRA	17	11/02/2016 16:02:06	0.00000	0.00000	N/A	N/A	N/A	N/A	1	0.00000	0.00000	0.00000	0.00000	0.00000	0.00000	0.00000	0.00000	0.00000	0.00000	0.00000	0.00000	0.00000	0.00000	0.00000
12	0	2	  0d 00:00:10.0000	  0d 00:00:00.0000	0.0000000000	0.0000000000	0.0000000000	3.90989548	FRA	17	11/02/2016 16:02:20	0.00000	0.00000	N/A	N/A	N/A	N/A	1	0.00000	0.00000	0.00000	0.00000	0.00000	0.00000	0.00000	0.00000	0.00000	0.00000	0.00000	0.00000	0.00000	0.00000	0.00000
12	0	2	  0d 00:00:10.0000	  0d 00:00:00.0000	0.0000000000	0.0000000000	0.0000000000	3.90989548	FRA	17	11/02/2016 16:02:37	0.00000	0.00000	N/A	N/A	N/A	N/A	1	0.00000	0.00000	0.00000	0.00000	0.00000	0.00000	0.00000	0.00000	0.00000	0.00000	0.00000	0.00000	0.00000	0.00000	0.00000
12	0	2	  0d 00:00:10.0000	  0d 00:00:00.0000	0.0000000000	0.0000000000	0.0000000000	3.90989548	FRA	17	11/02/2016 16:02:57	0.00000	0.00000	N/A	N/A	N/A	N/A	1	0.00000	0.00000	0.00000	0.00000	0.00000	0.00000	0.00000	0.00000	0.00000	0.00000	0.00000	0.00000	0.00000	0.00000	0.00000
12	0	2	  0d 00:00:10.0000	  0d 00:00:00.0000	0.0000000000	0.0000000000	0.0000000000	3.90989548	FRA	17	11/02/2016 16:03:22	0.00000	0.00000	N/A	N/A	N/A	N/A	1	0.00000	0.00000	0.00000	0.00000	0.00000	0.00000	0.00000	0.00000	0.00000	0.00000	0.00000	0.00000	0.00000	0.00000	0.00000
13	0	2	  0d 00:00:10.0000	  0d 00:00:00.0000	0.0000000000	0.0000000000	0.0000000000	3.91172656	P	199	11/02/2016 16:03:24	0.00000	0.00000	N/A	N/A	N/A	N/A	1	0.00000	0.00000	0.00000	0.00000	0.00000	0.00000	0.00000	0.00000	0.00000	0.00000	0.00000	0.00000	0.00000	0.00000	0.00000
14	0	3	  0d 00:00:10.0000	  0d 00:00:00.0000	0.0000000000	0.0000000000	0.0000000000	3.91172656	O	193	11/02/2016 16:03:24	0.00000	0.00000	N/A	N/A	N/A	N/A	1	0.00000	0.00000	0.00000	0.00000	0.00000	0.00000	0.00000	0.00000	0.00000	0.00000	0.00000	0.00000	0.00000	0.00000	0.00000
