Data_Point,Test_Time,DateTime,Step_Time,Step_Index,Cycle_Index,Current,Voltage,Charge_Capacity,Discharge_Capacity,Charge_Energy,Discharge_Energy,dV/dt,Internal_Resistance,Temperature
0,0.0,1494377253.17,,,,6.600444793701172,3.298668384552002,0.0051783411763608456,0.0,0.016939742490649223,0.0,0.01660442352294922,0.0,25.174373626708984
1,0.6929,1494377253.8629,,,,6.600467681884766,3.3086886405944824,0.0051783411763608456,0.0,0.016939742490649223,0.0,0.01660442352294922,0.0,25.174373626708984
2,1.4328,1494377254.6028,,,,6.6005706787109375,3.318721294403076,0.0078097376972436905,0.0,0.025646694004535675,0.0,0.014017105102539062,0.0,25.174373626708984
3,2.2274,1494377255.3974,,,,6.600536346435547,3.3287758827209473,0.009274866431951523,0.0,0.03051649034023285,0.0,0.012958526611328125,0.0,25.174373626708984
4,3.0753,1494377256.2453,,,,6.600528717041016,3.3388161659240723,0.010825629346072674,0.0,0.03568657115101814,0.0,0.01213836669921875,0.0,25.174373626708984
5,3.0754,1494377256.2454,,,,6.600528717041016,3.3388161659240723,0.010825629346072674,0.0,0.03568657115101814,0.0,0.01213836669921875,0.0,25.193971633911133
6,3.9674,1494377257.1374,,,,6.600643157958984,3.348890781402588,0.012456885538995266,0.0,0.04114137589931488,0.0,0.011523246765136719,0.0,25.193971633911133
7,4.9304,1494377258.1004,,,,6.600498199462891,3.3589396476745605,0.014215582050383091,0.0,0.04703996703028679,0.0,0.010637283325195312,0.0,25.193971633911133
8,5.9618,1494377259.1318,,,,6.599658966064453,3.3689780235290527,0.01611800119280815,0.0,0.05343972519040108,0.0,0.00989532470703125,0.0,25.136865615844727
9,7.0633,1494377260.2333,,,,6.599491119384766,3.378998279571533,0.0181400366127491,0.0,0.06026216596364975,0.0,0.009099006652832031,0.0,25.136865615844727
10,8.2419,1494377261.4119,,,,6.599475860595703,3.3890061378479004,0.02029183693230152,0.0,0.06754394620656967,0.0,0.008660316467285156,0.0,25.11139678955078
11,9.4789,1494377262.6489,,,,6.599479675292969,3.3990349769592285,0.022569196298718452,0.0,0.07527343183755875,0.0,0.008107185363769531,0.0,25.11139678955078
12,10.7837,1494377263.9537,,,,6.599540710449219,3.409050464630127,0.024953071027994156,0.0,0.08338836580514908,0.0,0.0076885223388671875,0.0,25.11139678955078
13,12.1699,1494377265.3399,,,,6.600360870361328,3.4190707206726074,0.027502011507749557,0.0,0.09209076315164566,0.0,0.0072841644287109375,0.0,25.15734100341797
14,13.6806,1494377266.8506,,,,6.600433349609375,3.429107189178467,0.030268507078289986,0.0,0.10156375914812088,0.0,0.006636619567871094,0.0,25.15734100341797
15,15.3351,1494377268.5051,,,,6.6003875732421875,3.4391303062438965,0.03329278156161308,0.0,0.11194969713687897,0.0,0.0059909820556640625,0.0,25.19597053527832
16,17.1969,1494377270.3669,,,,6.6003875732421875,3.4491305351257324,0.0367150604724884,0.0,0.12373673170804977,0.0,0.0053272247314453125,0.0,25.234771728515625
17,19.3366,1494377272.5066,,,,6.6003875732421875,3.4591622352600098,0.040628377348184586,0.0,0.13725441694259644,0.0,0.00452423095703125,0.0,25.234771728515625
18,21.8088,1494377274.9788,,,,6.6003875732421875,3.4691720008850098,0.04516703262925148,0.0,0.15297770500183105,0.0,0.0038852691650390625,0.0,25.234771728515625
19,21.8089,1494377274.9789,,,,6.6003875732421875,3.4691720008850098,0.04516703262925148,0.0,0.15297770500183105,0.0,0.0038852691650390625,0.0,25.183507919311523
20,24.8124,1494377277.9824,,,,6.600238800048828,3.479179859161377,0.05067317560315132,0.0,0.17210793495178223,0.0,0.0031566619873046875,0.0,25.183507919311523
21,24.8125,1494377277.9825,,,,6.600238800048828,3.479179859161377,0.05067317560315132,0.0,0.17210793495178223,0.0,0.0031566619873046875,0.0,25.19285774230957
22,28.5886,1494377281.7586,,,,6.600231170654297,3.4891867637634277,0.05759686604142189,0.0,0.19623279571533203,0.0,0.0024356842041015625,0.0,25.21556854248047
23,33.3576,1494377286.5276,,,,6.600212097167969,3.4991984367370605,0.06633558124303818,0.0,0.22676895558834076,0.0,0.0019960403442382812,0.0,25.204919815063477
24,39.0594,1494377292.2294,,,,6.600128173828125,3.5092005729675293,0.07678894698619843,0.0,0.2634006142616272,0.0,0.0016908645629882812,0.0,25.244117736816406
25,45.7097,1494377298.8797,,,,6.6000823974609375,3.5192017555236816,0.08898405730724335,0.0,0.3062582015991211,0.0,0.0014209747314453125,0.0,25.244117736816406
26,45.7098,1494377298.8798,,,,6.6000823974609375,3.5192017555236816,0.08898405730724335,0.0,0.3062582015991211,0.0,0.0014209747314453125,0.0,25.31179428100586
27,53.5937,1494377306.7637,,,,6.600009918212891,3.529207706451416,0.10343856364488602,0.0,0.35720089077949524,0.0,0.0011873245239257812,0.0,25.386266708374023
28,62.676,1494377315.846,,,,6.599903106689453,3.539210796356201,0.12008576840162277,0.0,0.4160374701023102,0.0,0.0010442733764648438,0.0,25.546152114868164
29,72.678,1494377325.848,,,,6.599803924560547,3.5487942695617676,0.13842719793319702,0.0,0.48104140162467957,0.0,0.00093841552734375,0.0,25.613422393798828
30,82.6782,1494377335.8482,,,,6.599605560302734,3.556673526763916,0.15676790475845337,0.0,0.5462033152580261,0.0,0.0006885528564453125,0.0,25.613422393798828
31,82.6783,1494377335.8483,,,,6.599605560302734,3.556673526763916,0.15676790475845337,0.0,0.5462033152580261,0.0,0.0006885528564453125,0.0,25.752010345458984
32,92.6787,1494377345.8487,,,,6.599552154541016,3.563169002532959,0.17509230971336365,0.0,0.6114392280578613,0.0,0.0005941390991210938,0.0,25.752010345458984
33,92.6788,1494377345.8488,,,,6.599552154541016,3.563169002532959,0.17509230971336365,0.0,0.6114392280578613,0.0,0.0005941390991210938,0.0,25.868810653686523
34,102.6826,1494377355.8526,,,,6.599552154541016,3.568530559539795,0.1934361308813095,0.0,0.6768519878387451,0.0,0.0005178451538085938,0.0,26.039840698242188
35,112.6888,1494377365.8588,,,,6.6002655029296875,3.5730137825012207,0.2117767632007599,0.0,0.7423429489135742,0.0,0.00044536590576171875,0.0,26.158580780029297
36,122.6891,1494377375.8591,,,,6.600223541259766,3.576937198638916,0.23011068999767303,0.0,0.8078866600990295,0.0,0.000354766845703125,0.0,26.34996795654297
37,132.6896,1494377385.8596,,,,6.600135803222656,3.5805554389953613,0.24844971299171448,0.0,0.873517632484436,0.0,0.000400543212890625,0.0,26.482498168945312
38,142.6937,1494377395.8637,,,,6.600177764892578,3.583980083465576,0.2667919099330902,0.0,0.939224362373352,0.0,0.0003376007080078125,0.0,26.573389053344727
39,152.6963,1494377405.8663,,,,6.600070953369141,3.5873055458068848,0.2851332426071167,0.0,1.0049898624420166,0.0,0.00031948089599609375,0.0,26.74416732788086
40,162.6975,1494377415.8675,,,,6.599967956542969,3.5906853675842285,0.30346906185150146,0.0,1.0707967281341553,0.0,0.0003147125244140625,0.0,26.930749893188477
41,172.703,1494377425.873,,,,6.599884033203125,3.5939812660217285,0.3218091130256653,0.0,1.136680245399475,0.0,0.00029468536376953125,0.0,26.930749893188477
42,172.7031,1494377425.8731,,,,6.599884033203125,3.5939812660217285,0.3218091130256653,0.0,1.136680245399475,0.0,0.00029468536376953125,0.0,27.084449768066406
43,182.7075,1494377435.8775,,,,6.599788665771484,3.5974202156066895,0.3401501178741455,0.0,1.2026288509368896,0.0,0.00038814544677734375,0.0,27.084449768066406
44,182.7076,1494377435.8776,,,,6.599788665771484,3.5974202156066895,0.3401501178741455,0.0,1.2026288509368896,0.0,0.00038814544677734375,0.0,27.225345611572266
45,190.1682,1494377443.3382,,,,6.5998077392578125,3.600003719329834,0.3538316786289215,0.0,1.2518646717071533,0.0,0.00038814544677734375,0.0,27.225345611572266
46,190.1683,1494377443.3383,,,,6.5998077392578125,3.600003719329834,0.3538316786289215,0.0,1.2518646717071533,0.0,0.00038814544677734375,0.0,27.34432029724121
47,190.3335,1494377443.5035,,,,0.00015544891357421875,3.474365711212158,0.3539769649505615,4.410742257543454e-11,1.2523819208145142,1.5867789027179668e-10,-0.04393291473388672,0.0,27.34432029724121
48,191.8657,1494377445.0357,,,,1.1000299453735352,3.4642891883850098,0.35434550046920776,4.410742257543454e-11,1.253660798072815,1.5867789027179668e-10,-0.006565093994140625,0.0,27.34432029724121
49,193.0921,1494377446.2621,,,,1.100062370300293,3.4542269706726074,0.35471874475479126,4.410742257543454e-11,1.25495183467865,1.5867789027179668e-10,-0.008066177368164062,0.0,27.34432029724121
50,193.0922,1494377446.2622,,,,1.100062370300293,3.4542269706726074,0.35471874475479126,4.410742257543454e-11,1.25495183467865,1.5867789027179668e-10,-0.008066177368164062,0.0,27.369640350341797
51,194.7881,1494377447.9581,,,,1.1000328063964844,3.4441771507263184,0.35523709654808044,4.410742257543454e-11,1.256739616394043,1.5867789027179668e-10,-0.0057201385498046875,0.0,27.369640350341797
52,197.062,1494377450.232,,,,1.1001310348510742,3.4341273307800293,0.35593393445014954,4.410742257543454e-11,1.2591360807418823,1.5867789027179668e-10,-0.0041942596435546875,0.0,27.424680709838867
53,200.154,1494377453.324,,,,1.099726676940918,3.424050807952881,0.35687822103500366,4.410742257543454e-11,1.2623738050460815,1.5867789027179668e-10,-0.0030298233032226562,0.0,27.502824783325195
54,204.3526,1494377457.5226,,,,1.0999841690063477,3.4140162467956543,0.35816118121147156,4.410742257543454e-11,1.2667601108551025,1.5867789027179668e-10,-0.0021457672119140625,0.0,27.502824783325195
55,204.3527,1494377457.5227,,,,1.0999841690063477,3.4140162467956543,0.35816118121147156,4.410742257543454e-11,1.2667601108551025,1.5867789027179668e-10,-0.0021457672119140625,0.0,27.53740882873535
56,209.3576,1494377462.5276,,,,1.099813461303711,3.405561923980713,0.35969051718711853,4.410742257543454e-11,1.2719744443893433,1.5867789027179668e-10,-0.0014085769653320312,0.0,27.52903175354004
57,214.3626,1494377467.5326,,,,1.1000661849975586,3.399324893951416,0.3612198531627655,4.410742257543454e-11,1.2771778106689453,1.5867789027179668e-10,-0.00109100341796875,0.0,27.52903175354004
58,214.3627,1494377467.5327,,,,1.1000661849975586,3.399324893951416,0.3612198531627655,4.410742257543454e-11,1.2771778106689453,1.5867789027179668e-10,-0.00109100341796875,0.0,27.562747955322266
59,219.365,1494377472.535,,,,1.1001396179199219,3.3947949409484863,0.362748920917511,4.410742257543454e-11,1.2823718786239624,1.5867789027179668e-10,-0.00081634521484375,0.0,27.571645736694336
60,224.3662,1494377477.5362,,,,1.0999860763549805,3.391292095184326,0.36427587270736694,4.410742257543454e-11,1.287552833557129,1.5867789027179668e-10,-0.0006399154663085938,0.0,27.571645736694336
61,224.3663,1494377477.5363,,,,1.0999860763549805,3.391292095184326,0.36427587270736694,4.410742257543454e-11,1.287552833557129,1.5867789027179668e-10,-0.0006399154663085938,0.0,27.566192626953125
62,229.3697,1494377482.5397,,,,1.1002330780029297,3.3885207176208496,0.3658054769039154,4.410742257543454e-11,1.2927379608154297,1.5867789027179668e-10,-0.000514984130859375,0.0,27.573291778564453
63,234.3715,1494377487.5415,,,,1.1000547409057617,3.386406421661377,0.36733290553092957,4.410742257543454e-11,1.2979122400283813,1.5867789027179668e-10,-0.00035762786865234375,0.0,27.594972610473633
64,239.3767,1494377492.5467,,,,1.1003494262695312,3.3848862648010254,0.36886247992515564,4.410742257543454e-11,1.3030908107757568,1.5867789027179668e-10,-0.0002574920654296875,0.0,27.593177795410156
65,244.3784,1494377497.5484,,,,1.1001920700073242,3.3837075233459473,0.37039047479629517,4.410742257543454e-11,1.3082619905471802,1.5867789027179668e-10,-0.00030612945556640625,0.0,27.60917854309082
66,249.3801,1494377502.5501,,,,1.0998907089233398,3.3826842308044434,0.37192022800445557,4.410742257543454e-11,1.3134373426437378,1.5867789027179668e-10,-0.00019359588623046875,0.0,27.57224464416504
67,254.3854,1494377507.5554,,,,1.0999736785888672,3.3819165229797363,0.3734476864337921,4.410742257543454e-11,1.318603754043579,1.5867789027179668e-10,-0.000164031982421875,0.0,27.57224464416504
68,254.3855,1494377507.5555,,,,1.0999736785888672,3.3819165229797363,0.3734476864337921,4.410742257543454e-11,1.318603754043579,1.5867789027179668e-10,-0.000164031982421875,0.0,27.545635223388672
69,259.3878,1494377512.5578,,,,1.0998544692993164,3.381430149078369,0.3749774396419525,4.410742257543454e-11,1.3237767219543457,1.5867789027179668e-10,-0.00030231475830078125,0.0,27.545635223388672
70,259.3879,1494377512.5579,,,,1.0998544692993164,3.381430149078369,0.3749774396419525,4.410742257543454e-11,1.3237767219543457,1.5867789027179668e-10,-0.00030231475830078125,0.0,27.550941467285156
71,264.3889,1494377517.5589,,,,1.099654197692871,3.3808865547180176,0.37650617957115173,4.410742257543454e-11,1.3289456367492676,1.5867789027179668e-10,-1.430511474609375e-05,0.0,27.550941467285156
72,264.389,1494377517.559,,,,1.099654197692871,3.3808865547180176,0.37650617957115173,4.410742257543454e-11,1.3289456367492676,1.5867789027179668e-10,-1.430511474609375e-05,0.0,27.569143295288086
73,269.3907,1494377522.5607,,,,1.1000642776489258,3.3807101249694824,0.3780338168144226,4.410742257543454e-11,1.334110140800476,1.5867789027179668e-10,-6.198883056640625e-05,0.0,27.569143295288086
74,269.3908,1494377522.5608,,,,1.1000642776489258,3.3807101249694824,0.3780338168144226,4.410742257543454e-11,1.334110140800476,1.5867789027179668e-10,-6.198883056640625e-05,0.0,27.517980575561523
75,274.3912,1494377527.5612,,,,1.0995607376098633,3.3802409172058105,0.3795594274997711,4.410742257543454e-11,1.339267373085022,1.5867789027179668e-10,-3.814697265625e-05,0.0,27.525981903076172
76,279.3946,1494377532.5646,,,,1.0999479293823242,3.380220890045166,0.38109061121940613,4.410742257543454e-11,1.3444430828094482,1.5867789027179668e-10,1.71661376953125e-05,0.0,27.44218635559082
77,284.398,1494377537.568,,,,1.0997657775878906,3.3799853324890137,0.38261985778808594,4.410742257543454e-11,1.3496119976043701,1.5867789027179668e-10,-8.58306884765625e-06,0.0,27.42528533935547
78,289.399,1494377542.569,,,,1.1000213623046875,3.379971981048584,0.3841465413570404,4.410742257543454e-11,1.3547722101211548,1.5867789027179668e-10,2.765655517578125e-05,0.0,27.42528533935547
79,289.3991,1494377542.5691,,,,1.1000213623046875,3.379971981048584,0.3841465413570404,4.410742257543454e-11,1.3547722101211548,1.5867789027179668e-10,2.765655517578125e-05,0.0,27.395036697387695
80,294.4021,1494377547.5721,,,,1.0999231338500977,3.3798203468322754,0.3856761157512665,4.410742257543454e-11,1.3599421977996826,1.5867789027179668e-10,6.389617919921875e-05,0.0,27.395036697387695
81,294.4022,1494377547.5722,,,,1.0999231338500977,3.3798203468322754,0.3856761157512665,4.410742257543454e-11,1.3599421977996826,1.5867789027179668e-10,6.389617919921875e-05,0.0,27.36403465270996
82,299.4035,1494377552.5735,,,,1.0999069213867188,3.3799901008605957,0.3872033953666687,4.410742257543454e-11,1.3651041984558105,1.5867789027179668e-10,7.534027099609375e-05,0.0,27.36403465270996
83,299.4036,1494377552.5736,,,,1.0999069213867188,3.3799901008605957,0.3872033953666687,4.410742257543454e-11,1.3651041984558105,1.5867789027179668e-10,7.534027099609375e-05,0.0,27.35951042175293
84,304.4064,1494377557.5764,,,,1.0998334884643555,3.380164623260498,0.38873291015625,4.410742257543454e-11,1.3702740669250488,1.5867789027179668e-10,-6.008148193359375e-05,0.0,27.32798194885254
85,309.4072,1494377562.5772,,,,1.0998458862304688,3.3800930976867676,0.3902600109577179,4.410742257543454e-11,1.375435709953308,1.5867789027179668e-10,-6.4849853515625e-05,0.0,27.285730361938477
86,314.4125,1494377567.5825,,,,1.1002025604248047,3.3802599906921387,0.3917888402938843,4.410742257543454e-11,1.380603313446045,1.5867789027179668e-10,4.1961669921875e-05,0.0,27.2197322845459
87,319.4159,1494377572.5859,,,,1.1001653671264648,3.3804287910461426,0.39331838488578796,4.410742257543454e-11,1.3857736587524414,1.5867789027179668e-10,-5.054473876953125e-05,0.0,27.277690887451172
88,324.4218,1494377577.5918,,,,1.1001472473144531,3.38038969039917,0.3948480188846588,4.410742257543454e-11,1.390944480895996,1.5867789027179668e-10,0.0001049041748046875,0.0,27.277690887451172
89,324.4219,1494377577.5919,,,,1.1001472473144531,3.38038969039917,0.3948480188846588,4.410742257543454e-11,1.390944480895996,1.5867789027179668e-10,0.0001049041748046875,0.0,27.214656829833984
90,329.4285,1494377582.5985,,,,1.100275993347168,3.380524158477783,0.3963771462440491,4.410742257543454e-11,1.3961137533187866,1.5867789027179668e-10,5.91278076171875e-05,0.0,27.214656829833984
91,329.4286,1494377582.5986,,,,1.100275993347168,3.380524158477783,0.3963771462440491,4.410742257543454e-11,1.3961137533187866,1.5867789027179668e-10,5.91278076171875e-05,0.0,27.160001754760742
92,334.4344,1494377587.6044,,,,1.1000003814697266,3.3807625770568848,0.3979080021381378,4.410742257543454e-11,1.4012889862060547,1.5867789027179668e-10,-5.435943603515625e-05,0.0,27.160001754760742
93,334.4345,1494377587.6045,,,,1.1000003814697266,3.3807625770568848,0.3979080021381378,4.410742257543454e-11,1.4012889862060547,1.5867789027179668e-10,-5.435943603515625e-05,0.0,27.14885902404785
94,339.4409,1494377592.6109,,,,1.1000823974609375,3.3809103965759277,0.39943715929985046,4.410742257543454e-11,1.4064589738845825,1.5867789027179668e-10,-6.771087646484375e-05,0.0,27.087982177734375
95,344.4453,1494377597.6153,,,,1.0999479293823242,3.3811135292053223,0.4009661376476288,4.410742257543454e-11,1.4116284847259521,1.5867789027179668e-10,0.000179290771484375,0.0,27.09198760986328
96,349.446,1494377602.616,,,,1.099710464477539,3.3812270164489746,0.4024934470653534,4.410742257543454e-11,1.416792631149292,1.5867789027179668e-10,0.0001392364501953125,0.0,27.132678985595703
97,354.4479,1494377607.6179,,,,1.0999641418457031,3.3814902305603027,0.40402305126190186,4.410742257543454e-11,1.4219647645950317,1.5867789027179668e-10,-4.76837158203125e-05,0.0,27.132678985595703
98,354.448,1494377607.618,,,,1.0999641418457031,3.3814902305603027,0.40402305126190186,4.410742257543454e-11,1.4219647645950317,1.5867789027179668e-10,-4.76837158203125e-05,0.0,27.027620315551758
99,359.4481,1494377612.6181,,,,1.0999374389648438,3.3816733360290527,0.405550092458725,4.410742257543454e-11,1.427128553390503,1.5867789027179668e-10,1.9073486328125e-05,0.0,27.063413619995117
100,364.4483,1494377617.6183,,,,1.1001195907592773,3.3819499015808105,0.4070794880390167,4.410742257543454e-11,1.4323006868362427,1.5867789027179668e-10,0.0001049041748046875,0.0,27.010534286499023
101,369.4537,1494377622.6237,,,,1.1000242233276367,3.382133960723877,0.4086076021194458,4.410742257543454e-11,1.4374687671661377,1.5867789027179668e-10,8.106231689453125e-05,0.0,27.010534286499023
102,369.4538,1494377622.6238,,,,1.1000242233276367,3.382133960723877,0.4086076021194458,4.410742257543454e-11,1.4374687671661377,1.5867789027179668e-10,8.106231689453125e-05,0.0,26.97367286682129
103,374.4564,1494377627.6264,,,,1.1000337600708008,3.382408618927002,0.4101361334323883,4.410742257543454e-11,1.442638635635376,1.5867789027179668e-10,-2.765655517578125e-05,0.0,27.000699996948242
104,379.457,1494377632.627,,,,1.1001949310302734,3.382519245147705,0.4116654694080353,4.410742257543454e-11,1.447811484336853,1.5867789027179668e-10,2.384185791015625e-05,0.0,26.899860382080078
105,384.4592,1494377637.6292,,,,1.0997190475463867,3.3826956748962402,0.41319265961647034,4.410742257543454e-11,1.4529774188995361,1.5867789027179668e-10,1.239776611328125e-05,0.0,26.899860382080078
106,384.4593,1494377637.6293,,,,1.0997190475463867,3.3826956748962402,0.41319265961647034,4.410742257543454e-11,1.4529774188995361,1.5867789027179668e-10,1.239776611328125e-05,0.0,26.98029899597168
107,389.4658,1494377642.6358,,,,1.1002378463745117,3.38285493850708,0.4147217273712158,4.410742257543454e-11,1.458150029182434,1.5867789027179668e-10,7.05718994140625e-05,0.0,26.87762451171875
108,394.4702,1494377647.6402,,,,1.1001396179199219,3.383195400238037,0.4162508547306061,4.410742257543454e-11,1.4633231163024902,1.5867789027179668e-10,8.58306884765625e-05,0.0,26.87762451171875
109,394.4703,1494377647.6403,,,,1.1001396179199219,3.383195400238037,0.4162508547306061,4.410742257543454e-11,1.4633231163024902,1.5867789027179668e-10,8.58306884765625e-05,0.0,26.911231994628906
110,399.4734,1494377652.6434,,,,1.0998315811157227,3.3834948539733887,0.41778042912483215,4.410742257543454e-11,1.4684981107711792,1.5867789027179668e-10,-3.910064697265625e-05,0.0,26.911231994628906
111,399.4735,1494377652.6435,,,,1.0998315811157227,3.3834948539733887,0.41778042912483215,4.410742257543454e-11,1.4684981107711792,1.5867789027179668e-10,-3.910064697265625e-05,0.0,26.906841278076172
112,404.4769,1494377657.6469,,,,1.1000118255615234,3.3837180137634277,0.41931015253067017,4.410742257543454e-11,1.473673939704895,1.5867789027179668e-10,-2.288818359375e-05,0.0,26.838796615600586
113,409.4777,1494377662.6477,,,,1.0999755859375,3.3838248252868652,0.42083725333213806,4.410742257543454e-11,1.4788413047790527,1.5867789027179668e-10,4.9591064453125e-05,0.0,26.838796615600586
114,409.4778,1494377662.6478,,,,1.0999755859375,3.3838248252868652,0.42083725333213806,4.410742257543454e-11,1.4788413047790527,1.5867789027179668e-10,4.9591064453125e-05,0.0,26.849557876586914
115,414.479,1494377667.649,,,,1.0999765396118164,3.383969783782959,0.42236679792404175,4.410742257543454e-11,1.484017252922058,1.5867789027179668e-10,-4.57763671875e-05,0.0,26.8205623626709
116,419.4807,1494377672.6507,,,,1.1000890731811523,3.3842320442199707,0.4238937497138977,4.410742257543454e-11,1.4891846179962158,1.5867789027179668e-10,6.008148193359375e-05,0.0,26.759262084960938
117,424.4809,1494377677.6509,,,,1.0999956130981445,3.3845629692077637,0.4254230558872223,4.410742257543454e-11,1.4943604469299316,1.5867789027179668e-10,0.00012302398681640625,0.0,26.795215606689453
118,429.4811,1494377682.6511,,,,1.1000699996948242,3.3848137855529785,0.4269501268863678,4.410742257543454e-11,1.4995290040969849,1.5867789027179668e-10,4.38690185546875e-05,0.0,26.795215606689453
119,429.4812,1494377682.6512,,,,1.1000699996948242,3.3848137855529785,0.4269501268863678,4.410742257543454e-11,1.4995290040969849,1.5867789027179668e-10,4.38690185546875e-05,0.0,26.749969482421875
120,434.4867,1494377687.6567,,,,1.1001577377319336,3.3849949836730957,0.4284803569316864,4.410742257543454e-11,1.5047086477279663,1.5867789027179668e-10,0.00011157989501953125,0.0,26.686830520629883
121,439.4921,1494377692.6621,,,,1.1000680923461914,3.3852477073669434,0.4300083816051483,4.410742257543454e-11,1.5098810195922852,1.5867789027179668e-10,1.71661376953125e-05,0.0,26.686830520629883
122,439.4922,1494377692.6622,,,,1.1000680923461914,3.3852477073669434,0.4300083816051483,4.410742257543454e-11,1.5098810195922852,1.5867789027179668e-10,1.71661376953125e-05,0.0,26.636255264282227
123,444.4983,1494377697.6683,,,,1.1000185012817383,3.3855013847351074,0.4315379559993744,4.410742257543454e-11,1.5150591135025024,1.5867789027179668e-10,0.00014495849609375,0.0,26.636255264282227
124,444.4984,1494377697.6684,,,,1.1000185012817383,3.3855013847351074,0.4315379559993744,4.410742257543454e-11,1.5150591135025024,1.5867789027179668e-10,0.00014495849609375,0.0,26.640642166137695
125,449.4998,1494377702.6698,,,,1.099961280822754,3.3855538368225098,0.43306753039360046,4.410742257543454e-11,1.5202374458312988,1.5867789027179668e-10,0.0001125335693359375,0.0,26.640642166137695
126,449.4999,1494377702.6699,,,,1.099961280822754,3.3855538368225098,0.43306753039360046,4.410742257543454e-11,1.5202374458312988,1.5867789027179668e-10,0.0001125335693359375,0.0,26.62862205505371
127,454.5024,1494377707.6724,,,,1.1001462936401367,3.3858399391174316,0.43459606170654297,4.410742257543454e-11,1.5254127979278564,1.5867789027179668e-10,-3.528594970703125e-05,0.0,26.62862205505371
128,454.5025,1494377707.6725,,,,1.1001462936401367,3.3858399391174316,0.43459606170654297,4.410742257543454e-11,1.5254127979278564,1.5867789027179668e-10,-3.528594970703125e-05,0.0,26.61785316467285
129,459.5035,1494377712.6735,,,,1.0997304916381836,3.3859915733337402,0.4361233711242676,4.410742257543454e-11,1.5305842161178589,1.5867789027179668e-10,-0.00011539459228515625,0.0,26.57659339904785
130,464.5086,1494377717.6786,,,,1.0997676849365234,3.386326313018799,0.4376527667045593,4.410742257543454e-11,1.535762906074524,1.5867789027179668e-10,5.7220458984375e-05,0.0,26.5645694732666
131,469.5121,1494377722.6821,,,,1.0999336242675781,3.3864331245422363,0.43918031454086304,4.410742257543454e-11,1.5409358739852905,1.5867789027179668e-10,-6.008148193359375e-05,0.0,26.50140953063965
132,474.5122,1494377727.6822,,,,1.1000118255615234,3.386716365814209,0.4407094419002533,4.410742257543454e-11,1.546114444732666,1.5867789027179668e-10,9.918212890625e-05,0.0,26.5432186126709
133,479.5133,1494377732.6833,,,,1.100142478942871,3.3869776725769043,0.4422374367713928,4.410742257543454e-11,1.5512895584106445,1.5867789027179668e-10,1.430511474609375e-05,0.0,26.476049423217773
134,484.5144,1494377737.6844,,,,1.099745750427246,3.387132167816162,0.443766325712204,4.410742257543454e-11,1.5564680099487305,1.5867789027179668e-10,3.337860107421875e-05,0.0,26.512920379638672
135,489.5145,1494377742.6845,,,,1.0997495651245117,3.3873839378356934,0.4452934265136719,4.410742257543454e-11,1.561640739440918,1.5867789027179668e-10,-9.250640869140625e-05,0.0,26.512920379638672
136,489.5146,1494377742.6846,,,,1.0997495651245117,3.3873839378356934,0.4452934265136719,4.410742257543454e-11,1.561640739440918,1.5867789027179668e-10,-9.250640869140625e-05,0.0,26.455974578857422
137,494.518,1494377747.688,,,,1.1001758575439453,3.387495517730713,0.44682225584983826,4.410742257543454e-11,1.566819667816162,1.5867789027179668e-10,-2.574920654296875e-05,0.0,26.455974578857422
138,494.5181,1494377747.6881,,,,1.1001758575439453,3.387495517730713,0.44682225584983826,4.410742257543454e-11,1.566819667816162,1.5867789027179668e-10,-2.574920654296875e-05,0.0,26.428014755249023
139,499.5242,1494377752.6942,,,,1.1001653671264648,3.3877673149108887,0.4483521282672882,4.410742257543454e-11,1.5720022916793823,1.5867789027179668e-10,0.00020503997802734375,0.0,26.402130126953125
140,504.5299,1494377757.6999,,,,1.1000642776489258,3.388000965118408,0.449880987405777,4.410742257543454e-11,1.5771820545196533,1.5867789027179668e-10,-2.384185791015625e-05,0.0,26.433334350585938
141,509.5348,1494377762.7048,,,,1.1001081466674805,3.3882346153259277,0.45141032338142395,4.410742257543454e-11,1.5823636054992676,1.5867789027179668e-10,0.0,0.0,26.433334350585938
142,509.5349,1494377762.7049,,,,1.1001081466674805,3.3882346153259277,0.45141032338142395,4.410742257543454e-11,1.5823636054992676,1.5867789027179668e-10,0.0,0.0,26.404857635498047
143,514.54,1494377767.71,,,,1.0999689102172852,3.3884949684143066,0.4529396593570709,4.410742257543454e-11,1.58754563331604,1.5867789027179668e-10,-4.76837158203125e-06,0.0,26.35502052307129
144,519.5435,1494377772.7135,,,,1.1001472473144531,3.3887505531311035,0.454469233751297,4.410742257543454e-11,1.592728614807129,1.5867789027179668e-10,8.106231689453125e-05,0.0,26.358129501342773
145,524.5471,1494377777.7171,,,,1.1001787185668945,3.388885021209717,0.4559980630874634,4.410742257543454e-11,1.5979094505310059,1.5867789027179668e-10,6.008148193359375e-05,0.0,26.363937377929688
146,529.5504,1494377782.7204,,,,1.0997886657714844,3.3890938758850098,0.4575253129005432,4.410742257543454e-11,1.6030852794647217,1.5867789027179668e-10,2.288818359375e-05,0.0,26.363937377929688
147,529.5505,1494377782.7205,,,,1.0997886657714844,3.3890938758850098,0.4575253129005432,4.410742257543454e-11,1.6030852794647217,1.5867789027179668e-10,2.288818359375e-05,0.0,26.328338623046875
148,534.5514,1494377787.7214,,,,1.1000280380249023,3.38930082321167,0.4590546190738678,4.410742257543454e-11,1.6082683801651,1.5867789027179668e-10,0.00011539459228515625,0.0,26.299850463867188
149,539.553,1494377792.723,,,,1.100022315979004,3.3895068168640137,0.4605836868286133,4.410742257543454e-11,1.6134511232376099,1.5867789027179668e-10,6.29425048828125e-05,0.0,26.299850463867188
150,539.5531,1494377792.7231,,,,1.100022315979004,3.3895068168640137,0.4605836868286133,4.410742257543454e-11,1.6134511232376099,1.5867789027179668e-10,6.29425048828125e-05,0.0,26.20211410522461
151,544.5561,1494377797.7261,,,,1.1000146865844727,3.3897061347961426,0.46211111545562744,4.410742257543454e-11,1.6186285018920898,1.5867789027179668e-10,0.0003032684326171875,0.0,26.20211410522461
152,544.5562,1494377797.7262,,,,1.1000146865844727,3.3897061347961426,0.46211111545562744,4.410742257543454e-11,1.6186285018920898,1.5867789027179668e-10,0.0003032684326171875,0.0,26.233192443847656
153,549.5584,1494377802.7284,,,,1.0999746322631836,3.389848232269287,0.4636387825012207,4.410742257543454e-11,1.6238069534301758,1.5867789027179668e-10,-9.5367431640625e-07,0.0,26.227354049682617
154,554.5618,1494377807.7318,,,,1.1001958847045898,3.3901515007019043,0.46516910195350647,4.410742257543454e-11,1.6289948225021362,1.5867789027179668e-10,-8.678436279296875e-05,0.0,26.1705379486084
155,559.5656,1494377812.7356,,,,1.0999774932861328,3.3903145790100098,0.4666975438594818,4.410742257543454e-11,1.6341766119003296,1.5867789027179668e-10,3.814697265625e-05,0.0,26.1411190032959
156,564.569,1494377817.739,,,,1.0999336242675781,3.390519618988037,0.4682263433933258,4.410742257543454e-11,1.639359951019287,1.5867789027179668e-10,1.71661376953125e-05,0.0,26.1411190032959
157,564.5691,1494377817.7391,,,,1.0999336242675781,3.390519618988037,0.4682263433933258,4.410742257543454e-11,1.639359951019287,1.5867789027179668e-10,1.71661376953125e-05,0.0,26.202491760253906
158,569.5732,1494377822.7432,,,,1.0998220443725586,3.390847682952881,0.46975621581077576,4.410742257543454e-11,1.6445472240447998,1.5867789027179668e-10,-1.71661376953125e-05,0.0,26.145652770996094
159,574.5749,1494377827.7449,,,,1.1001996994018555,3.3910927772521973,0.4712851047515869,4.410742257543454e-11,1.6497313976287842,1.5867789027179668e-10,-6.29425048828125e-05,0.0,26.145652770996094
160,574.575,1494377827.745,,,,1.1001996994018555,3.3910927772521973,0.4712851047515869,4.410742257543454e-11,1.6497313976287842,1.5867789027179668e-10,-6.29425048828125e-05,0.0,26.073135375976562
161,579.575,1494377832.745,,,,1.1001501083374023,3.3912816047668457,0.4728129208087921,4.410742257543454e-11,1.6549123525619507,1.5867789027179668e-10,1.1444091796875e-05,0.0,26.073135375976562
162,579.5751,1494377832.7451,,,,1.1001501083374023,3.3912816047668457,0.4728129208087921,4.410742257543454e-11,1.6549123525619507,1.5867789027179668e-10,1.1444091796875e-05,0.0,26.08025550842285
163,584.5761,1494377837.7461,,,,1.0999269485473633,3.3913216590881348,0.4743395149707794,4.410742257543454e-11,1.660089373588562,1.5867789027179668e-10,8.296966552734375e-05,0.0,26.08025550842285
164,584.5762,1494377837.7462,,,,1.0999269485473633,3.3913216590881348,0.4743395149707794,4.410742257543454e-11,1.660089373588562,1.5867789027179668e-10,8.296966552734375e-05,0.0,26.025089263916016
165,589.5815,1494377842.7515,,,,1.0999412536621094,3.3915963172912598,0.47586917877197266,4.410742257543454e-11,1.6652772426605225,1.5867789027179668e-10,-2.6702880859375e-05,0.0,26.08153533935547
166,594.5874,1494377847.7574,,,,1.1001253128051758,3.391782283782959,0.47739872336387634,4.410742257543454e-11,1.6704649925231934,1.5867789027179668e-10,0.00015544891357421875,0.0,26.059812545776367
167,599.5888,1494377852.7588,,,,1.100088119506836,3.392007350921631,0.4789266586303711,4.410742257543454e-11,1.675647497177124,1.5867789027179668e-10,2.86102294921875e-06,0.0,26.059812545776367
168,599.5889,1494377852.7589,,,,1.100088119506836,3.392007350921631,0.4789266586303711,4.410742257543454e-11,1.675647497177124,1.5867789027179668e-10,2.86102294921875e-06,0.0,26.034395217895508
169,604.5909,1494377857.7609,,,,1.1001815795898438,3.392256259918213,0.48045453429222107,4.410742257543454e-11,1.6808302402496338,1.5867789027179668e-10,8.678436279296875e-05,0.0,26.034395217895508
170,604.591,1494377857.761,,,,1.1001815795898438,3.392256259918213,0.48045453429222107,4.410742257543454e-11,1.6808302402496338,1.5867789027179668e-10,8.678436279296875e-05,0.0,26.00187873840332
171,609.5933,1494377862.7633,,,,1.099625587463379,3.3923592567443848,0.48198431730270386,4.410742257543454e-11,1.6860196590423584,1.5867789027179668e-10,-6.961822509765625e-05,0.0,25.97431182861328
172,614.5941,1494377867.7641,,,,1.0996894836425781,3.3925604820251465,0.4835130274295807,4.410742257543454e-11,1.6912057399749756,1.5867789027179668e-10,8.678436279296875e-05,0.0,25.96587562561035
173,619.5998,1494377872.7698,,,,1.0999155044555664,3.392747402191162,0.48504185676574707,4.410742257543454e-11,1.6963926553726196,1.5867789027179668e-10,9.72747802734375e-05,0.0,25.96587562561035
174,619.5999,1494377872.7699,,,,1.0999155044555664,3.392747402191162,0.48504185676574707,4.410742257543454e-11,1.6963926553726196,1.5867789027179668e-10,9.72747802734375e-05,0.0,25.998247146606445
175,624.6064,1494377877.7764,,,,1.0996723175048828,3.3928914070129395,0.486571729183197,4.410742257543454e-11,1.7015833854675293,1.5867789027179668e-10,1.049041748046875e-05,0.0,25.95199966430664
176,629.6121,1494377882.7821,,,,1.0999374389648438,3.393235683441162,0.4881012439727783,4.410742257543454e-11,1.7067731618881226,1.5867789027179668e-10,7.62939453125e-06,0.0,25.97739028930664
177,634.6135,1494377887.7835,,,,1.1000995635986328,3.3934273719787598,0.4896301031112671,4.410742257543454e-11,1.711961030960083,1.5867789027179668e-10,-6.4849853515625e-05,0.0,25.926231384277344
178,639.6199,1494377892.7899,,,,1.1000585556030273,3.393664836883545,0.49115777015686035,4.410742257543454e-11,1.7171452045440674,1.5867789027179668e-10,2.574920654296875e-05,0.0,25.926231384277344
179,639.62,1494377892.79,,,,1.1000585556030273,3.393664836883545,0.49115777015686035,4.410742257543454e-11,1.7171452045440674,1.5867789027179668e-10,2.574920654296875e-05,0.0,25.90574836730957
180,644.6207,1494377897.7907,,,,1.1001396179199219,3.393838405609131,0.49268707633018494,4.410742257543454e-11,1.7223352193832397,1.5867789027179668e-10,0.00023746490478515625,0.0,25.901208877563477
181,649.6252,1494377902.7952,,,,1.1000032424926758,3.393932819366455,0.4942164421081543,4.410742257543454e-11,1.7275258302688599,1.5867789027179668e-10,0.000152587890625,0.0,25.901208877563477
182,649.6253,1494377902.7953,,,,1.1000032424926758,3.393932819366455,0.4942164421081543,4.410742257543454e-11,1.7275258302688599,1.5867789027179668e-10,0.000152587890625,0.0,25.922590255737305
183,654.6289,1494377907.7989,,,,1.1001996994018555,3.394157886505127,0.49574530124664307,4.410742257543454e-11,1.7327148914337158,1.5867789027179668e-10,9.632110595703125e-05,0.0,25.922590255737305
184,659.6311,1494377912.8011,,,,1.1000127792358398,3.394339084625244,0.49727290868759155,4.410742257543454e-11,1.7379001379013062,1.5867789027179668e-10,0.000118255615234375,0.0,25.922590255737305
185,659.6312,1494377912.8012,,,,1.1000127792358398,3.394339084625244,0.49727290868759155,4.410742257543454e-11,1.7379001379013062,1.5867789027179668e-10,0.000118255615234375,0.0,25.823707580566406
186,664.6329,1494377917.8029,,,,1.100205421447754,3.394655704498291,0.4988020360469818,4.410742257543454e-11,1.7430907487869263,1.5867789027179668e-10,0.0001049041748046875,0.0,25.85405731201172
187,669.636,1494377922.806,,,,1.0999269485473633,3.3949074745178223,0.5003294348716736,4.410742257543454e-11,1.748275876045227,1.5867789027179668e-10,0.00014591217041015625,0.0,25.860626220703125
188,674.6417,1494377927.8117,,,,1.1000537872314453,3.3951029777526855,0.501860499382019,4.410742257543454e-11,1.7534736394882202,1.5867789027179668e-10,-2.956390380859375e-05,0.0,25.82734489440918
189,679.6441,1494377932.8141,,,,1.0995759963989258,3.3952383995056152,0.5033880472183228,4.410742257543454e-11,1.7586599588394165,1.5867789027179668e-10,6.29425048828125e-05,0.0,25.82734489440918
190,679.6442,1494377932.8142,,,,1.0995759963989258,3.3952383995056152,0.5033880472183228,4.410742257543454e-11,1.7586599588394165,1.5867789027179668e-10,6.29425048828125e-05,0.0,25.855710983276367
191,684.6444,1494377937.8144,,,,1.100107192993164,3.395481586456299,0.5049173831939697,4.410742257543454e-11,1.7638524770736694,1.5867789027179668e-10,-4.76837158203125e-06,0.0,25.849483489990234
192,689.6471,1494377942.8171,,,,1.0998735427856445,3.3956828117370605,0.5064446926116943,4.410742257543454e-11,1.7690386772155762,1.5867789027179668e-10,6.961822509765625e-05,0.0,25.75789451599121
193,694.6481,1494377947.8181,,,,1.1000003814697266,3.395864963531494,0.5079740285873413,4.410742257543454e-11,1.774232029914856,1.5867789027179668e-10,5.340576171875e-05,0.0,25.788619995117188
194,699.6502,1494377952.8202,,,,1.0998563766479492,3.3961291313171387,0.5095012187957764,4.410742257543454e-11,1.7794182300567627,1.5867789027179668e-10,0.00013256072998046875,0.0,25.72663688659668
195,704.6553,1494377957.8253,,,,1.0999975204467773,3.3962883949279785,0.5110312104225159,4.410742257543454e-11,1.7846143245697021,1.5867789027179668e-10,0.00010585784912109375,0.0,25.722246170043945
196,709.6579,1494377962.8279,,,,1.1002025604248047,3.39652681350708,0.5125598311424255,4.410742257543454e-11,1.7898062467575073,1.5867789027179668e-10,-1.621246337890625e-05,0.0,25.700857162475586
197,714.6587,1494377967.8287,,,,1.1000967025756836,3.3966708183288574,0.5140869617462158,4.410742257543454e-11,1.7949931621551514,1.5867789027179668e-10,0.0001316070556640625,0.0,25.700857162475586
198,714.6588,1494377967.8288,,,,1.1000967025756836,3.3966708183288574,0.5140869617462158,4.410742257543454e-11,1.7949931621551514,1.5867789027179668e-10,0.0001316070556640625,0.0,25.721343994140625
199,719.6589,1494377972.8289,,,,1.1000823974609375,3.3969435691833496,0.5156162977218628,4.410742257543454e-11,1.8001880645751953,1.5867789027179668e-10,1.049041748046875e-05,0.0,25.716018676757812
200,724.6592,1494377977.8292,,,,1.1000709533691406,3.3971943855285645,0.5171442031860352,4.410742257543454e-11,1.8053783178329468,1.5867789027179668e-10,4.00543212890625e-05,0.0,25.716018676757812
201,724.6593,1494377977.8293,,,,1.1000709533691406,3.3971943855285645,0.5171442031860352,4.410742257543454e-11,1.8053783178329468,1.5867789027179668e-10,4.00543212890625e-05,0.0,25.667943954467773
202,729.661,1494377982.831,,,,1.1000747680664062,3.3973889350891113,0.5186710357666016,4.410742257543454e-11,1.8105652332305908,1.5867789027179668e-10,0.00011730194091796875,0.0,25.712936401367188
203,734.6641,1494377987.8341,,,,1.0999364852905273,3.397583484649658,0.5202006697654724,4.410742257543454e-11,1.8157622814178467,1.5867789027179668e-10,1.811981201171875e-05,0.0,25.699954986572266
204,739.6647,1494377992.8347,,,,1.1002416610717773,3.3976149559020996,0.5217283368110657,4.410742257543454e-11,1.8209527730941772,1.5867789027179668e-10,-6.198883056640625e-05,0.0,25.699954986572266
205,739.6648,1494377992.8348,,,,1.1002416610717773,3.3976149559020996,0.5217283368110657,4.410742257543454e-11,1.8209527730941772,1.5867789027179668e-10,-6.198883056640625e-05,0.0,25.65496063232422
206,744.6669,1494377997.8369,,,,1.0999698638916016,3.398041248321533,0.5232570171356201,4.410742257543454e-11,1.8261470794677734,1.5867789027179668e-10,-0.00018024444580078125,0.0,25.684417724609375
207,749.6684,1494378002.8384,,,,1.0999059677124023,3.3982691764831543,0.5247843265533447,4.410742257543454e-11,1.8313369750976562,1.5867789027179668e-10,-2.956390380859375e-05,0.0,25.684417724609375
208,749.6685,1494378002.8385,,,,1.0999059677124023,3.3982691764831543,0.5247843265533447,4.410742257543454e-11,1.8313369750976562,1.5867789027179668e-10,-2.956390380859375e-05,0.0,25.652780532836914
209,754.672,1494378007.842,,,,1.0999841690063477,3.398348331451416,0.5263133645057678,4.410742257543454e-11,1.8365331888198853,1.5867789027179668e-10,-7.43865966796875e-05,0.0,25.699398040771484
210,759.6736,1494378012.8436,,,,1.100027084350586,3.398587703704834,0.5278429388999939,4.410742257543454e-11,1.8417315483093262,1.5867789027179668e-10,-4.9591064453125e-05,0.0,25.699398040771484
211,759.6737,1494378012.8437,,,,1.100027084350586,3.398587703704834,0.5278429388999939,4.410742257543454e-11,1.8417315483093262,1.5867789027179668e-10,-4.9591064453125e-05,0.0,25.662092208862305
212,764.6774,1494378017.8474,,,,1.100118637084961,3.3988089561462402,0.5293697118759155,4.410742257543454e-11,1.8469206094741821,1.5867789027179668e-10,7.534027099609375e-05,0.0,25.662092208862305
213,764.6775,1494378017.8475,,,,1.100118637084961,3.3988089561462402,0.5293697118759155,4.410742257543454e-11,1.8469206094741821,1.5867789027179668e-10,7.534027099609375e-05,0.0,25.63630485534668
214,769.6785,1494378022.8485,,,,1.1000499725341797,3.3990397453308105,0.5308993458747864,4.410742257543454e-11,1.8521196842193604,1.5867789027179668e-10,0.0001049041748046875,0.0,25.63630485534668
215,769.6786,1494378022.8486,,,,1.1000499725341797,3.3990397453308105,0.5308993458747864,4.410742257543454e-11,1.8521196842193604,1.5867789027179668e-10,0.0001049041748046875,0.0,25.642534255981445
216,774.6843,1494378027.8543,,,,1.100102424621582,3.399301052093506,0.5324289798736572,4.410742257543454e-11,1.8573192358016968,1.5867789027179668e-10,-8.392333984375e-05,0.0,25.627714157104492
217,779.6851,1494378032.8551,,,,1.100076675415039,3.3995842933654785,0.533955991268158,4.410742257543454e-11,1.8625102043151855,1.5867789027179668e-10,4.76837158203125e-05,0.0,25.570846557617188
218,784.6854,1494378037.8554,,,,1.099966049194336,3.3997645378112793,0.5354853272438049,4.410742257543454e-11,1.8677092790603638,1.5867789027179668e-10,6.103515625e-05,0.0,25.570846557617188
219,784.6855,1494378037.8555,,,,1.099966049194336,3.3997645378112793,0.5354853272438049,4.410742257543454e-11,1.8677092790603638,1.5867789027179668e-10,6.103515625e-05,0.0,25.621667861938477
220,789.6906,1494378042.8606,,,,1.100142478942871,3.3999581336975098,0.5370126366615295,4.410742257543454e-11,1.8729020357131958,1.5867789027179668e-10,0.0001373291015625,0.0,25.621667861938477
221,789.6907,1494378042.8607,,,,1.100142478942871,3.3999581336975098,0.5370126366615295,4.410742257543454e-11,1.8729020357131958,1.5867789027179668e-10,0.0001373291015625,0.0,25.641633987426758
222,794.6932,1494378047.8632,,,,1.099954605102539,3.400184154510498,0.5385420322418213,4.410742257543454e-11,1.8781020641326904,1.5867789027179668e-10,0.0001697540283203125,0.0,25.573585510253906
223,799.6956,1494378052.8656,,,,1.0999507904052734,3.4004244804382324,0.5400710701942444,4.410742257543454e-11,1.8833013772964478,1.5867789027179668e-10,-7.62939453125e-05,0.0,25.573585510253906
224,799.6957,1494378052.8657,,,,1.0999507904052734,3.4004244804382324,0.5400710701942444,4.410742257543454e-11,1.8833013772964478,1.5867789027179668e-10,-7.62939453125e-05,0.0,25.5446834564209
225,804.6995,1494378057.8695,,,,1.099961280822754,3.4007315635681152,0.5415987372398376,4.410742257543454e-11,1.8884962797164917,1.5867789027179668e-10,0.000202178955078125,0.0,25.5446834564209
226,804.6996,1494378057.8696,,,,1.099961280822754,3.4007315635681152,0.5415987372398376,4.410742257543454e-11,1.8884962797164917,1.5867789027179668e-10,0.000202178955078125,0.0,25.663026809692383
227,809.7018,1494378062.8718,,,,1.0997047424316406,3.400791645050049,0.5431292057037354,4.410742257543454e-11,1.8937009572982788,1.5867789027179668e-10,0.000102996826171875,0.0,25.595354080200195
228,814.7028,1494378067.8728,,,,1.0999269485473633,3.401064395904541,0.5446564555168152,4.410742257543454e-11,1.898895263671875,1.5867789027179668e-10,9.5367431640625e-06,0.0,25.595354080200195
229,814.7029,1494378067.8729,,,,1.0999269485473633,3.401064395904541,0.5446564555168152,4.410742257543454e-11,1.898895263671875,1.5867789027179668e-10,9.5367431640625e-06,0.0,25.56551742553711
230,819.7051,1494378072.8751,,,,1.0999412536621094,3.4014182090759277,0.5461857914924622,4.410742257543454e-11,1.9040968418121338,1.5867789027179668e-10,6.771087646484375e-05,0.0,25.572309494018555
231,824.7066,1494378077.8766,,,,1.0998725891113281,3.4016318321228027,0.5477131009101868,4.410742257543454e-11,1.9092919826507568,1.5867789027179668e-10,8.487701416015625e-05,0.0,25.517963409423828
232,829.7104,1494378082.8804,,,,1.099863052368164,3.4018540382385254,0.5492421984672546,4.410742257543454e-11,1.914493441581726,1.5867789027179668e-10,9.1552734375e-05,0.0,25.571746826171875
233,834.7162,1494378087.8862,,,,1.1000070571899414,3.4020256996154785,0.5507717728614807,4.410742257543454e-11,1.9196970462799072,1.5867789027179668e-10,8.58306884765625e-05,0.0,25.571746826171875
234,834.7163,1494378087.8863,,,,1.1000070571899414,3.4020256996154785,0.5507717728614807,4.410742257543454e-11,1.9196970462799072,1.5867789027179668e-10,8.58306884765625e-05,0.0,25.512134552001953
235,839.7184,1494378092.8884,,,,1.1000404357910156,3.4022927284240723,0.5523009300231934,4.410742257543454e-11,1.9248994588851929,1.5867789027179668e-10,9.34600830078125e-05,0.0,25.512134552001953
236,839.7185,1494378092.8885,,,,1.1000404357910156,3.4022927284240723,0.5523009300231934,4.410742257543454e-11,1.9248994588851929,1.5867789027179668e-10,9.34600830078125e-05,0.0,25.575763702392578
237,844.7244,1494378097.8944,,,,1.0999774932861328,3.4025301933288574,0.5538304448127747,4.410742257543454e-11,1.9301036596298218,1.5867789027179668e-10,-8.7738037109375e-05,0.0,25.573959350585938
238,849.7279,1494378102.8979,,,,1.1002120971679688,3.402924060821533,0.5553581118583679,4.410742257543454e-11,1.935301661491394,1.5867789027179668e-10,6.580352783203125e-05,0.0,25.530792236328125
239,854.7288,1494378107.8988,,,,1.1002416610717773,3.4031386375427246,0.5568867921829224,4.410742257543454e-11,1.9405035972595215,1.5867789027179668e-10,0.00015354156494140625,0.0,25.530792236328125
240,854.7289,1494378107.8989,,,,1.1002416610717773,3.4031386375427246,0.5568867921829224,4.410742257543454e-11,1.9405035972595215,1.5867789027179668e-10,0.00015354156494140625,0.0,25.553464889526367
241,859.7308,1494378112.9008,,,,1.1000986099243164,3.4032540321350098,0.5584146976470947,4.410742257543454e-11,1.945703387260437,1.5867789027179668e-10,-4.673004150390625e-05,0.0,25.579252243041992
242,864.7326,1494378117.9026,,,,1.1000185012817383,3.4036307334899902,0.5599435567855835,4.410742257543454e-11,1.950906753540039,1.5867789027179668e-10,0.00013828277587890625,0.0,25.536087036132812
243,869.7328,1494378122.9028,,,,1.0999431610107422,3.4038004875183105,0.5614721179008484,4.410742257543454e-11,1.9561094045639038,1.5867789027179668e-10,6.4849853515625e-05,0.0,25.536989212036133
244,874.733,1494378127.903,,,,1.0999488830566406,3.404022693634033,0.5630000233650208,4.410742257543454e-11,1.9613101482391357,1.5867789027179668e-10,9.059906005859375e-05,0.0,25.536989212036133
245,874.7331,1494378127.9031,,,,1.0999488830566406,3.404022693634033,0.5630000233650208,4.410742257543454e-11,1.9613101482391357,1.5867789027179668e-10,9.059906005859375e-05,0.0,25.585857391357422
246,879.7351,1494378132.9051,,,,1.0999956130981445,3.4042696952819824,0.5645279288291931,4.410742257543454e-11,1.9665113687515259,1.5867789027179668e-10,7.2479248046875e-05,0.0,25.51652717590332
247,884.7376,1494378137.9076,,,,1.100062370300293,3.4044604301452637,0.5660569667816162,4.410742257543454e-11,1.9717168807983398,1.5867789027179668e-10,0.00019073486328125,0.0,25.56187629699707
248,889.743,1494378142.913,,,,1.1001014709472656,3.4047188758850098,0.5675866007804871,4.410742257543454e-11,1.9769246578216553,1.5867789027179668e-10,0.00013637542724609375,0.0,25.568103790283203
249,894.7464,1494378147.9164,,,,1.0997867584228516,3.4050650596618652,0.5691132545471191,4.410742257543454e-11,1.982122778892517,1.5867789027179668e-10,0.0001220703125,0.0,25.52583885192871
250,899.7491,1494378152.9191,,,,1.1002922058105469,3.4054007530212402,0.5706425905227661,4.410742257543454e-11,1.9873303174972534,1.5867789027179668e-10,0.00015735626220703125,0.0,25.58949851989746
251,904.7513,1494378157.9213,,,,1.0999822616577148,3.405540943145752,0.5721724033355713,4.410742257543454e-11,1.992539882659912,1.5867789027179668e-10,6.103515625e-05,0.0,25.58949851989746
252,904.7514,1494378157.9214,,,,1.0999822616577148,3.405540943145752,0.5721724033355713,4.410742257543454e-11,1.992539882659912,1.5867789027179668e-10,6.103515625e-05,0.0,25.549448013305664
253,909.7544,1494378162.9244,,,,1.1001853942871094,3.4057364463806152,0.5737011432647705,4.410742257543454e-11,1.9977463483810425,1.5867789027179668e-10,5.340576171875e-05,0.0,25.50883674621582
254,914.7567,1494378167.9267,,,,1.0998430252075195,3.4061503410339355,0.575228750705719,4.410742257543454e-11,2.0029492378234863,1.5867789027179668e-10,2.765655517578125e-05,0.0,25.56134796142578
255,919.7618,1494378172.9318,,,,1.1000490188598633,3.4063210487365723,0.5767581462860107,4.410742257543454e-11,2.0081586837768555,1.5867789027179668e-10,0.000133514404296875,0.0,25.508459091186523
256,924.7627,1494378177.9327,,,,1.099893569946289,3.406581401824951,0.5782867074012756,4.410742257543454e-11,2.0133657455444336,1.5867789027179668e-10,1.9073486328125e-06,0.0,25.57249641418457
257,929.7638,1494378182.9338,,,,1.0999202728271484,3.4068846702575684,0.5798140168190002,4.410742257543454e-11,2.018568754196167,1.5867789027179668e-10,4.38690185546875e-05,0.0,25.557329177856445
258,934.7649,1494378187.9349,,,,1.1000757217407227,3.4070496559143066,0.5813414454460144,4.410742257543454e-11,2.0237724781036377,1.5867789027179668e-10,4.482269287109375e-05,0.0,25.517650604248047
259,939.7701,1494378192.9401,,,,1.1000022888183594,3.4073710441589355,0.5828709602355957,4.410742257543454e-11,2.0289840698242188,1.5867789027179668e-10,-4.9591064453125e-05,0.0,25.517650604248047
260,939.7702,1494378192.9402,,,,1.1000022888183594,3.4073710441589355,0.5828709602355957,4.410742257543454e-11,2.0289840698242188,1.5867789027179668e-10,-4.9591064453125e-05,0.0,25.542688369750977
261,944.7753,1494378197.9453,,,,1.1000118255615234,3.4076285362243652,0.5844002962112427,4.410742257543454e-11,2.0341951847076416,1.5867789027179668e-10,0.0001049041748046875,0.0,25.542688369750977
262,944.7754,1494378197.9454,,,,1.1000118255615234,3.4076285362243652,0.5844002962112427,4.410742257543454e-11,2.0341951847076416,1.5867789027179668e-10,0.0001049041748046875,0.0,25.5203914642334
263,949.7775,1494378202.9475,,,,1.100102424621582,3.407888889312744,0.5859293341636658,4.410742257543454e-11,2.0394058227539062,1.5867789027179668e-10,0.000110626220703125,0.0,25.5203914642334
264,949.7776,1494378202.9476,,,,1.100102424621582,3.407888889312744,0.5859293341636658,4.410742257543454e-11,2.0394058227539062,1.5867789027179668e-10,0.000110626220703125,0.0,25.529705047607422
265,954.7794,1494378207.9494,,,,1.0998382568359375,3.4082159996032715,0.5874584317207336,4.410742257543454e-11,2.044616937637329,1.5867789027179668e-10,-2.384185791015625e-05,0.0,25.529705047607422
266,954.7795,1494378207.9495,,,,1.0998382568359375,3.4082159996032715,0.5874584317207336,4.410742257543454e-11,2.044616937637329,1.5867789027179668e-10,-2.384185791015625e-05,0.0,25.506126403808594
267,959.7813,1494378212.9513,,,,1.0998802185058594,3.4083704948425293,0.5889859199523926,4.410742257543454e-11,2.04982328414917,1.5867789027179668e-10,2.384185791015625e-05,0.0,25.485624313354492
268,964.7832,1494378217.9532,,,,1.1000938415527344,3.4086546897888184,0.5905150175094604,4.410742257543454e-11,2.055035352706909,1.5867789027179668e-10,-1.71661376953125e-05,0.0,25.50079345703125
269,969.7862,1494378222.9562,,,,1.0999412536621094,3.4089179039001465,0.5920424461364746,4.410742257543454e-11,2.060242176055908,1.5867789027179668e-10,0.00016021728515625,0.0,25.50079345703125
270,974.7876,1494378227.9576,,,,1.1001262664794922,3.409203052520752,0.5935719609260559,4.410742257543454e-11,2.0654566287994385,1.5867789027179668e-10,8.106231689453125e-05,0.0,25.50079345703125
271,974.7877,1494378227.9577,,,,1.1001262664794922,3.409203052520752,0.5935719609260559,4.410742257543454e-11,2.0654566287994385,1.5867789027179668e-10,8.106231689453125e-05,0.0,25.51142120361328
272,979.7898,1494378232.9598,,,,1.0999927520751953,3.4096789360046387,0.595099151134491,4.410742257543454e-11,2.0706634521484375,1.5867789027179668e-10,0.0001354217529296875,0.0,25.50481605529785
273,984.7939,1494378237.9639,,,,1.0998735427856445,3.4097447395324707,0.5966281890869141,4.410742257543454e-11,2.0758769512176514,1.5867789027179668e-10,2.193450927734375e-05,0.0,25.48288917541504
274,989.7966,1494378242.9666,,,,1.1000165939331055,3.410186290740967,0.598157525062561,4.410742257543454e-11,2.08109188079834,1.5867789027179668e-10,0.000141143798828125,0.0,25.48288917541504
275,989.7967,1494378242.9667,,,,1.1000165939331055,3.410186290740967,0.598157525062561,4.410742257543454e-11,2.08109188079834,1.5867789027179668e-10,0.000141143798828125,0.0,25.487438201904297
276,994.7994,1494378247.9694,,,,1.100111961364746,3.410396099090576,0.5996867418289185,4.410742257543454e-11,2.0863070487976074,1.5867789027179668e-10,0.0,0.0,25.487438201904297
277,994.7995,1494378247.9695,,,,1.100111961364746,3.410396099090576,0.5996867418289185,4.410742257543454e-11,2.0863070487976074,1.5867789027179668e-10,0.0,0.0,25.515438079833984
278,999.8026,1494378252.9726,,,,1.1000432968139648,3.4106249809265137,0.6012140512466431,4.410742257543454e-11,2.0915160179138184,1.5867789027179668e-10,1.9073486328125e-05,0.0,25.474628448486328
279,1004.8062,1494378257.9762,,,,1.1000699996948242,3.4110617637634277,0.6027437448501587,4.410742257543454e-11,2.096733570098877,1.5867789027179668e-10,6.67572021484375e-05,0.0,25.528425216674805
280,1009.8129,1494378262.9829,,,,1.099961280822754,3.411329746246338,0.604272723197937,4.410742257543454e-11,2.1019489765167236,1.5867789027179668e-10,0.00013446807861328125,0.0,25.528425216674805
281,1009.813,1494378262.983,,,,1.099961280822754,3.411329746246338,0.604272723197937,4.410742257543454e-11,2.1019489765167236,1.5867789027179668e-10,0.00013446807861328125,0.0,25.482666015625
282,1014.8154,1494378267.9854,,,,1.1000661849975586,3.411414623260498,0.6058019995689392,4.410742257543454e-11,2.107166051864624,1.5867789027179668e-10,-7.915496826171875e-05,0.0,25.482666015625
283,1014.8155,1494378267.9855,,,,1.1000661849975586,3.411414623260498,0.6058019995689392,4.410742257543454e-11,2.107166051864624,1.5867789027179668e-10,-7.915496826171875e-05,0.0,25.423789978027344
284,1019.818,1494378272.988,,,,1.0997819900512695,3.4118552207946777,0.6073290109634399,4.410742257543454e-11,2.1123757362365723,1.5867789027179668e-10,1.71661376953125e-05,0.0,25.423789978027344
285,1019.8181,1494378272.9881,,,,1.0997819900512695,3.4118552207946777,0.6073290109634399,4.410742257543454e-11,2.1123757362365723,1.5867789027179668e-10,1.71661376953125e-05,0.0,25.398897171020508
286,1022.8913,1494378276.0613,,,,1.1000289916992188,3.4119858741760254,0.6082700490951538,4.410742257543454e-11,2.115586519241333,1.5867789027179668e-10,1.71661376953125e-05,0.0,25.446468353271484
