Today's Date 10/10/2019  Date of Test:	10/10/2019	 Filename:	C:\Users\Maccor Tester User\Documents\Backup\STANFORD LOANER #1\STANFORD LOANER #2\PredictionDiagnostics_000151_00001E.052 Procedure: PredictionDiagnostics_000151.000	Comment/Barcode: 00001E
Rec#	Cyc#	Step	Test (Sec)	Step (Sec)	Amp-hr	Watt-hr	Amps	Volts	State	ES	DPt Time	Loop1	Loop2	Loop3	Loop4	ACImp/Ohms	DCIR/Ohms	WF Chg Cap	WF Dis Cap	WF Chg E	WF Dis E	Range	VAR1	VAR2	VAR3	VAR4	VAR5	VAR6	VAR7	VAR8	VAR9	VAR10	VAR11	VAR12	VAR13	VAR14	VAR15
249791	37	44	769267.2400	14.2500	0.0191579754	0.0744874270	-4.8400091554	3.86823835	D	1	10/21/2019 10:59:59	3	2	0	0	0.00000	0.00000	N/A	N/A	N/A	N/A	1	0.00000	0.00000	0.00000	0.00000	0.00000	0.00000	0.00000	0.00000	0.00000	0.00000	0.00000	0.00000	0.00000	0.00000	0.00000
249792	37	44	769267.2500	14.2600	0.0191714199	0.0745394334	-4.8400091554	3.86823835	D	1	10/21/2019 10:59:59	3	2	0	0	0.00000	0.00000	N/A	N/A	N/A	N/A	1	0.00000	0.00000	0.00000	0.00000	0.00000	0.00000	0.00000	0.00000	0.00000	0.00000	0.00000	0.00000	0.00000	0.00000	0.00000
249793	37	44	769267.2600	14.2700	0.0191848643	0.0745914408	-4.8393224994	3.86823835	D	1	10/21/2019 10:59:59	3	2	0	0	0.00000	0.00000	N/A	N/A	N/A	N/A	1	0.00000	0.00000	0.00000	0.00000	0.00000	0.00000	0.00000	0.00000	0.00000	0.00000	0.00000	0.00000	0.00000	0.00000	0.00000
249794	37	44	769267.2700	14.2800	0.0191983069	0.0746434368	-4.8400091554	3.86816205	D	1	10/21/2019 10:59:59	3	2	0	0	0.00000	0.00000	N/A	N/A	N/A	N/A	1	0.00000	0.00000	0.00000	0.00000	0.00000	0.00000	0.00000	0.00000	0.00000	0.00000	0.00000	0.00000	0.00000	0.00000	0.00000
249795	37	44	769267.2800	14.2900	0.0192117514	0.0746954401	-4.8397802701	3.86808576	D	1	10/21/2019 10:59:59	3	2	0	0	0.00000	0.00000	N/A	N/A	N/A	N/A	1	0.00000	0.00000	0.00000	0.00000	0.00000	0.00000	0.00000	0.00000	0.00000	0.00000	0.00000	0.00000	0.00000	0.00000	0.00000
249796	37	44	769267.2900	14.3000	0.0192251952	0.0747474461	-4.8397802701	3.86816205	D	1	10/21/2019 10:59:59	3	2	0	0	0.00000	0.00000	N/A	N/A	N/A	N/A	1	0.00000	0.00000	0.00000	0.00000	0.00000	0.00000	0.00000	0.00000	0.00000	0.00000	0.00000	0.00000	0.00000	0.00000	0.00000
249797	37	44	769267.3000	14.3100	0.0192386390	0.0747994450	-4.8404669261	3.86800946	D	1	10/21/2019 10:59:59	3	2	0	0	0.00000	0.00000	N/A	N/A	N/A	N/A	1	0.00000	0.00000	0.00000	0.00000	0.00000	0.00000	0.00000	0.00000	0.00000	0.00000	0.00000	0.00000	0.00000	0.00000	0.00000
249798	37	44	769267.3100	14.3200	0.0192520848	0.0748514542	-4.8397802701	3.86808576	D	1	10/21/2019 10:59:59	3	2	0	0	0.00000	0.00000	N/A	N/A	N/A	N/A	1	0.00000	0.00000	0.00000	0.00000	0.00000	0.00000	0.00000	0.00000	0.00000	0.00000	0.00000	0.00000	0.00000	0.00000	0.00000
249799	37	44	769267.3200	14.3300	0.0192655286	0.0749034562	-4.8402380407	3.86808576	D	1	10/21/2019 10:59:59	3	2	0	0	0.00000	0.00000	N/A	N/A	N/A	N/A	1	0.00000	0.00000	0.00000	0.00000	0.00000	0.00000	0.00000	0.00000	0.00000	0.00000	0.00000	0.00000	0.00000	0.00000	0.00000
249800	37	44	769267.3300	14.3400	0.0192789737	0.0749554599	-4.8400091554	3.86793317	D	1	10/21/2019 10:59:59	3	2	0	0	0.00000	0.00000	N/A	N/A	N/A	N/A	1	0.00000	0.00000	0.00000	0.00000	0.00000	0.00000	0.00000	0.00000	0.00000	0.00000	0.00000	0.00000	0.00000	0.00000	0.00000
249801	37	44	769267.3400	14.3500	0.0192924182	0.0750074632	-4.8397802701	3.86800946	D	1	10/21/2019 10:59:59	3	2	0	0	0.00000	0.00000	N/A	N/A	N/A	N/A	1	0.00000	0.00000	0.00000	0.00000	0.00000	0.00000	0.00000	0.00000	0.00000	0.00000	0.00000	0.00000	0.00000	0.00000	0.00000
249802	37	44	769267.3500	14.3600	0.0193058620	0.0750594651	-4.8397802701	3.86800946	D	1	10/21/2019 10:59:59	3	2	0	0	0.00000	0.00000	N/A	N/A	N/A	N/A	1	0.00000	0.00000	0.00000	0.00000	0.00000	0.00000	0.00000	0.00000	0.00000	0.00000	0.00000	0.00000	0.00000	0.00000	0.00000
249803	37	44	769267.3600	14.3700	0.0193193058	0.0751114650	-4.8397802701	3.86793317	D	1	10/21/2019 10:59:59	3	2	0	0	0.00000	0.00000	N/A	N/A	N/A	N/A	1	0.00000	0.00000	0.00000	0.00000	0.00000	0.00000	0.00000	0.00000	0.00000	0.00000	0.00000	0.00000	0.00000	0.00000	0.00000
249804	37	44	769267.3700	14.3800	0.0193327497	0.0751634659	-4.8397802701	3.86800946	D	1	10/21/2019 10:59:59	3	2	0	0	0.00000	0.00000	N/A	N/A	N/A	N/A	1	0.00000	0.00000	0.00000	0.00000	0.00000	0.00000	0.00000	0.00000	0.00000	0.00000	0.00000	0.00000	0.00000	0.00000	0.00000
249805	37	44	769267.3800	14.3900	0.0193461935	0.0752154667	-4.8402380407	3.86800946	D	1	10/21/2019 10:59:59	3	2	0	0	0.00000	0.00000	N/A	N/A	N/A	N/A	1	0.00000	0.00000	0.00000	0.00000	0.00000	0.00000	0.00000	0.00000	0.00000	0.00000	0.00000	0.00000	0.00000	0.00000	0.00000
249806	37	44	769267.3900	14.4000	0.0193596386	0.0752674705	-4.8397802701	3.86793317	D	1	10/21/2019 10:59:59	3	2	0	0	0.00000	0.00000	N/A	N/A	N/A	N/A	1	0.00000	0.00000	0.00000	0.00000	0.00000	0.00000	0.00000	0.00000	0.00000	0.00000	0.00000	0.00000	0.00000	0.00000	0.00000
249807	37	44	769267.4000	14.4100	0.0193730824	0.0753194703	-4.8402380407	3.86793317	D	1	10/21/2019 10:59:59	3	2	0	0	0.00000	0.00000	N/A	N/A	N/A	N/A	1	0.00000	0.00000	0.00000	0.00000	0.00000	0.00000	0.00000	0.00000	0.00000	0.00000	0.00000	0.00000	0.00000	0.00000	0.00000
249808	37	44	769267.4100	14.4200	0.0193865276	0.0753714741	-4.8397802701	3.86785687	D	1	10/21/2019 10:59:59	3	2	0	0	0.00000	0.00000	N/A	N/A	N/A	N/A	1	0.00000	0.00000	0.00000	0.00000	0.00000	0.00000	0.00000	0.00000	0.00000	0.00000	0.00000	0.00000	0.00000	0.00000	0.00000
249809	37	44	769267.4200	14.4300	0.0193999714	0.0754234719	-4.8400091554	3.86785687	D	1	10/21/2019 10:59:59	3	2	0	0	0.00000	0.00000	N/A	N/A	N/A	N/A	1	0.00000	0.00000	0.00000	0.00000	0.00000	0.00000	0.00000	0.00000	0.00000	0.00000	0.00000	0.00000	0.00000	0.00000	0.00000
249810	37	44	769267.4300	14.4400	0.0194134159	0.0754754711	-4.8402380407	3.86778058	D	1	10/21/2019 10:59:59	3	2	0	0	0.00000	0.00000	N/A	N/A	N/A	N/A	1	0.00000	0.00000	0.00000	0.00000	0.00000	0.00000	0.00000	0.00000	0.00000	0.00000	0.00000	0.00000	0.00000	0.00000	0.00000
249811	37	44	769267.4400	14.4500	0.0194268610	0.0755274749	-4.8400091554	3.86778058	D	1	10/21/2019 10:59:59	3	2	0	0	0.00000	0.00000	N/A	N/A	N/A	N/A	1	0.00000	0.00000	0.00000	0.00000	0.00000	0.00000	0.00000	0.00000	0.00000	0.00000	0.00000	0.00000	0.00000	0.00000	0.00000
249812	37	44	769267.4500	14.4600	0.0194403054	0.0755794772	-4.8397802701	3.86778058	D	1	10/21/2019 10:59:59	3	2	0	0	0.00000	0.00000	N/A	N/A	N/A	N/A	1	0.00000	0.00000	0.00000	0.00000	0.00000	0.00000	0.00000	0.00000	0.00000	0.00000	0.00000	0.00000	0.00000	0.00000	0.00000
249813	37	44	769267.4600	14.4700	0.0194537493	0.0756314729	-4.8395513848	3.86778058	D	1	10/21/2019 10:59:59	3	2	0	0	0.00000	0.00000	N/A	N/A	N/A	N/A	1	0.00000	0.00000	0.00000	0.00000	0.00000	0.00000	0.00000	0.00000	0.00000	0.00000	0.00000	0.00000	0.00000	0.00000	0.00000
249814	37	44	769267.4700	14.4800	0.0194671925	0.0756834652	-4.8400091554	3.86770428	D	1	10/21/2019 10:59:59	3	2	0	0	0.00000	0.00000	N/A	N/A	N/A	N/A	1	0.00000	0.00000	0.00000	0.00000	0.00000	0.00000	0.00000	0.00000	0.00000	0.00000	0.00000	0.00000	0.00000	0.00000	0.00000
249815	37	44	769267.4800	14.4900	0.0194806369	0.0757354665	-4.8393224994	3.86770428	D	1	10/21/2019 10:59:59	3	2	0	0	0.00000	0.00000	N/A	N/A	N/A	N/A	1	0.00000	0.00000	0.00000	0.00000	0.00000	0.00000	0.00000	0.00000	0.00000	0.00000	0.00000	0.00000	0.00000	0.00000	0.00000
249816	37	44	769267.4900	14.5000	0.0194940795	0.0757874594	-4.8402380407	3.86770428	D	1	10/21/2019 10:59:59	3	2	0	0	0.00000	0.00000	N/A	N/A	N/A	N/A	1	0.00000	0.00000	0.00000	0.00000	0.00000	0.00000	0.00000	0.00000	0.00000	0.00000	0.00000	0.00000	0.00000	0.00000	0.00000
249817	37	44	769267.5000	14.5100	0.0195075246	0.0758394610	-4.8400091554	3.86770428	D	1	10/21/2019 10:59:59	3	2	0	0	0.00000	0.00000	N/A	N/A	N/A	N/A	1	0.00000	0.00000	0.00000	0.00000	0.00000	0.00000	0.00000	0.00000	0.00000	0.00000	0.00000	0.00000	0.00000	0.00000	0.00000
249818	37	44	769267.5100	14.5200	0.0195209691	0.0758914582	-4.8397802701	3.86770428	D	1	10/21/2019 10:59:59	3	2	0	0	0.00000	0.00000	N/A	N/A	N/A	N/A	1	0.00000	0.00000	0.00000	0.00000	0.00000	0.00000	0.00000	0.00000	0.00000	0.00000	0.00000	0.00000	0.00000	0.00000	0.00000
249819	37	44	769267.5200	14.5300	0.0195344129	0.0759434540	-4.8402380407	3.86762799	D	1	10/21/2019 10:59:59	3	2	0	0	0.00000	0.00000	N/A	N/A	N/A	N/A	1	0.00000	0.00000	0.00000	0.00000	0.00000	0.00000	0.00000	0.00000	0.00000	0.00000	0.00000	0.00000	0.00000	0.00000	0.00000
249820	37	44	769267.5300	14.5400	0.0195478580	0.0759954557	-4.8400091554	3.86762799	D	1	10/21/2019 10:59:59	3	2	0	0	0.00000	0.00000	N/A	N/A	N/A	N/A	1	0.00000	0.00000	0.00000	0.00000	0.00000	0.00000	0.00000	0.00000	0.00000	0.00000	0.00000	0.00000	0.00000	0.00000	0.00000
249821	37	44	769267.5400	14.5500	0.0195613025	0.0760474539	-4.8395513848	3.86762799	D	1	10/21/2019 10:59:59	3	2	0	0	0.00000	0.00000	N/A	N/A	N/A	N/A	1	0.00000	0.00000	0.00000	0.00000	0.00000	0.00000	0.00000	0.00000	0.00000	0.00000	0.00000	0.00000	0.00000	0.00000	0.00000
249822	37	44	769267.5500	14.5600	0.0195747457	0.0760994451	-4.8402380407	3.86755169	D	1	10/21/2019 10:59:59	3	2	0	0	0.00000	0.00000	N/A	N/A	N/A	N/A	1	0.00000	0.00000	0.00000	0.00000	0.00000	0.00000	0.00000	0.00000	0.00000	0.00000	0.00000	0.00000	0.00000	0.00000	0.00000
249823	37	44	769267.5600	14.5700	0.0195881908	0.0761514478	-4.8397802701	3.86762799	D	1	10/21/2019 10:59:59	3	2	0	0	0.00000	0.00000	N/A	N/A	N/A	N/A	1	0.00000	0.00000	0.00000	0.00000	0.00000	0.00000	0.00000	0.00000	0.00000	0.00000	0.00000	0.00000	0.00000	0.00000	0.00000
249824	37	44	769267.5700	14.5800	0.0196016346	0.0762034415	-4.8402380407	3.86755169	D	1	10/21/2019 10:59:59	3	2	0	0	0.00000	0.00000	N/A	N/A	N/A	N/A	1	0.00000	0.00000	0.00000	0.00000	0.00000	0.00000	0.00000	0.00000	0.00000	0.00000	0.00000	0.00000	0.00000	0.00000	0.00000
249825	37	44	769267.5800	14.5900	0.0196150797	0.0762554401	-4.8404669261	3.86755169	D	1	10/21/2019 10:59:59	3	2	0	0	0.00000	0.00000	N/A	N/A	N/A	N/A	1	0.00000	0.00000	0.00000	0.00000	0.00000	0.00000	0.00000	0.00000	0.00000	0.00000	0.00000	0.00000	0.00000	0.00000	0.00000
249826	37	44	769267.5900	14.6000	0.0196285255	0.0763074433	-4.8397802701	3.86755169	D	1	10/21/2019 10:59:59	3	2	0	0	0.00000	0.00000	N/A	N/A	N/A	N/A	1	0.00000	0.00000	0.00000	0.00000	0.00000	0.00000	0.00000	0.00000	0.00000	0.00000	0.00000	0.00000	0.00000	0.00000	0.00000
249827	37	44	769267.6000	14.6100	0.0196419693	0.0763594359	-4.8397802701	3.86747539	D	1	10/21/2019 10:59:59	3	2	0	0	0.00000	0.00000	N/A	N/A	N/A	N/A	1	0.00000	0.00000	0.00000	0.00000	0.00000	0.00000	0.00000	0.00000	0.00000	0.00000	0.00000	0.00000	0.00000	0.00000	0.00000
249828	37	44	769267.6100	14.6200	0.0196554131	0.0764114296	-4.8393224994	3.86747539	D	1	10/21/2019 10:59:59	3	2	0	0	0.00000	0.00000	N/A	N/A	N/A	N/A	1	0.00000	0.00000	0.00000	0.00000	0.00000	0.00000	0.00000	0.00000	0.00000	0.00000	0.00000	0.00000	0.00000	0.00000	0.00000
249829	37	44	769267.6200	14.6300	0.0196688557	0.0764634174	-4.8397802701	3.86747539	D	1	10/21/2019 10:59:59	3	2	0	0	0.00000	0.00000	N/A	N/A	N/A	N/A	1	0.00000	0.00000	0.00000	0.00000	0.00000	0.00000	0.00000	0.00000	0.00000	0.00000	0.00000	0.00000	0.00000	0.00000	0.00000
249830	37	44	769267.6300	14.6400	0.0196822995	0.0765154090	-4.8400091554	3.86739910	D	1	10/21/2019 10:59:59	3	2	0	0	0.00000	0.00000	N/A	N/A	N/A	N/A	1	0.00000	0.00000	0.00000	0.00000	0.00000	0.00000	0.00000	0.00000	0.00000	0.00000	0.00000	0.00000	0.00000	0.00000	0.00000
249831	37	44	769267.6400	14.6500	0.0196957440	0.0765674062	-4.8402380407	3.86739910	D	1	10/21/2019 10:59:59	3	2	0	0	0.00000	0.00000	N/A	N/A	N/A	N/A	1	0.00000	0.00000	0.00000	0.00000	0.00000	0.00000	0.00000	0.00000	0.00000	0.00000	0.00000	0.00000	0.00000	0.00000	0.00000
249832	37	44	769267.6500	14.6600	0.0197091891	0.0766194079	-4.8400091554	3.86747539	D	1	10/21/2019 10:59:59	3	2	0	0	0.00000	0.00000	N/A	N/A	N/A	N/A	1	0.00000	0.00000	0.00000	0.00000	0.00000	0.00000	0.00000	0.00000	0.00000	0.00000	0.00000	0.00000	0.00000	0.00000	0.00000
249833	37	44	769267.6600	14.6700	0.0197226336	0.0766714020	-4.8395513848	3.86747539	D	1	10/21/2019 10:59:59	3	2	0	0	0.00000	0.00000	N/A	N/A	N/A	N/A	1	0.00000	0.00000	0.00000	0.00000	0.00000	0.00000	0.00000	0.00000	0.00000	0.00000	0.00000	0.00000	0.00000	0.00000	0.00000
249834	37	44	769267.6700	14.6800	0.0197360768	0.0767233933	-4.8400091554	3.86747539	D	1	10/21/2019 10:59:59	3	2	0	0	0.00000	0.00000	N/A	N/A	N/A	N/A	1	0.00000	0.00000	0.00000	0.00000	0.00000	0.00000	0.00000	0.00000	0.00000	0.00000	0.00000	0.00000	0.00000	0.00000	0.00000
249836	37	44	769267.6900	14.7000	0.0197629651	0.0768273852	-4.8409246967	3.86747539	D	1	10/21/2019 13:00:00	3	2	0	0	0.00000	0.00000	N/A	N/A	N/A	N/A	1	0.00000	0.00000	0.00000	0.00000	0.00000	0.00000	0.00000	0.00000	0.00000	0.00000	0.00000	0.00000	0.00000	0.00000	0.00000
249837	37	44	769267.7000	14.7100	0.0197764121	0.0768793912	-4.8400091554	3.86747539	D	1	10/21/2019 13:00:00	3	2	0	0	0.00000	0.00000	N/A	N/A	N/A	N/A	1	0.00000	0.00000	0.00000	0.00000	0.00000	0.00000	0.00000	0.00000	0.00000	0.00000	0.00000	0.00000	0.00000	0.00000	0.00000
249838	37	44	769267.7100	14.7200	0.0197898566	0.0769313853	-4.8397802701	3.86747539	D	1	10/21/2019 13:00:00	3	2	0	0	0.00000	0.00000	N/A	N/A	N/A	N/A	1	0.00000	0.00000	0.00000	0.00000	0.00000	0.00000	0.00000	0.00000	0.00000	0.00000	0.00000	0.00000	0.00000	0.00000	0.00000
249839	37	44	769267.7200	14.7300	0.0198033004	0.0769833779	-4.8400091554	3.86739910	D	1	10/21/2019 13:00:00	3	2	0	0	0.00000	0.00000	N/A	N/A	N/A	N/A	1	0.00000	0.00000	0.00000	0.00000	0.00000	0.00000	0.00000	0.00000	0.00000	0.00000	0.00000	0.00000	0.00000	0.00000	0.00000
249840	37	44	769267.7300	14.7400	0.0198167449	0.0770353731	-4.8393224994	3.86739910	D	1	10/21/2019 13:00:00	3	2	0	0	0.00000	0.00000	N/A	N/A	N/A	N/A	1	0.00000	0.00000	0.00000	0.00000	0.00000	0.00000	0.00000	0.00000	0.00000	0.00000	0.00000	0.00000	0.00000	0.00000	0.00000
249841	37	44	769267.7400	14.7500	0.0198301874	0.0770873598	-4.8400091554	3.86732280	D	1	10/21/2019 13:00:00	3	2	0	0	0.00000	0.00000	N/A	N/A	N/A	N/A	1	0.00000	0.00000	0.00000	0.00000	0.00000	0.00000	0.00000	0.00000	0.00000	0.00000	0.00000	0.00000	0.00000	0.00000	0.00000
249842	37	44	769267.7500	14.7600	0.0198436319	0.0771393539	-4.8395513848	3.86732280	D	1	10/21/2019 13:00:00	3	2	0	0	0.00000	0.00000	N/A	N/A	N/A	N/A	1	0.00000	0.00000	0.00000	0.00000	0.00000	0.00000	0.00000	0.00000	0.00000	0.00000	0.00000	0.00000	0.00000	0.00000	0.00000
249843	37	44	769267.7600	14.7700	0.0198570751	0.0771913410	-4.8395513848	3.86724651	D	1	10/21/2019 13:00:00	3	2	0	0	0.00000	0.00000	N/A	N/A	N/A	N/A	1	0.00000	0.00000	0.00000	0.00000	0.00000	0.00000	0.00000	0.00000	0.00000	0.00000	0.00000	0.00000	0.00000	0.00000	0.00000
249844	37	44	769267.7700	14.7800	0.0198705183	0.0772433302	-4.8397802701	3.86724651	D	1	10/21/2019 13:00:00	3	2	0	0	0.00000	0.00000	N/A	N/A	N/A	N/A	1	0.00000	0.00000	0.00000	0.00000	0.00000	0.00000	0.00000	0.00000	0.00000	0.00000	0.00000	0.00000	0.00000	0.00000	0.00000
249845	37	44	769267.7800	14.7900	0.0198839621	0.0772953229	-4.8393224994	3.86724651	D	1	10/21/2019 13:00:00	3	2	0	0	0.00000	0.00000	N/A	N/A	N/A	N/A	1	0.00000	0.00000	0.00000	0.00000	0.00000	0.00000	0.00000	0.00000	0.00000	0.00000	0.00000	0.00000	0.00000	0.00000	0.00000
249846	37	44	769267.7900	14.8000	0.0198974047	0.0773473086	-4.8400091554	3.86724651	D	1	10/21/2019 13:00:00	3	2	0	0	0.00000	0.00000	N/A	N/A	N/A	N/A	1	0.00000	0.00000	0.00000	0.00000	0.00000	0.00000	0.00000	0.00000	0.00000	0.00000	0.00000	0.00000	0.00000	0.00000	0.00000
249847	37	44	769267.8000	14.8100	0.0199108492	0.0773993017	-4.8400091554	3.86724651	D	1	10/21/2019 13:00:00	3	2	0	0	0.00000	0.00000	N/A	N/A	N/A	N/A	1	0.00000	0.00000	0.00000	0.00000	0.00000	0.00000	0.00000	0.00000	0.00000	0.00000	0.00000	0.00000	0.00000	0.00000	0.00000
249848	37	44	769267.8100	14.8200	0.0199242936	0.0774512948	-4.8400091554	3.86724651	D	1	10/21/2019 13:00:00	3	2	0	0	0.00000	0.00000	N/A	N/A	N/A	N/A	1	0.00000	0.00000	0.00000	0.00000	0.00000	0.00000	0.00000	0.00000	0.00000	0.00000	0.00000	0.00000	0.00000	0.00000	0.00000
249849	37	44	769267.8200	14.8300	0.0199377381	0.0775032858	-4.8402380407	3.86717021	D	1	10/21/2019 13:00:00	3	2	0	0	0.00000	0.00000	N/A	N/A	N/A	N/A	1	0.00000	0.00000	0.00000	0.00000	0.00000	0.00000	0.00000	0.00000	0.00000	0.00000	0.00000	0.00000	0.00000	0.00000	0.00000
249850	37	44	769267.8300	14.8400	0.0199511832	0.0775552813	-4.8400091554	3.86717021	D	1	10/21/2019 13:00:00	3	2	0	0	0.00000	0.00000	N/A	N/A	N/A	N/A	1	0.00000	0.00000	0.00000	0.00000	0.00000	0.00000	0.00000	0.00000	0.00000	0.00000	0.00000	0.00000	0.00000	0.00000	0.00000
249851	37	44	769267.8400	14.8500	0.0199646277	0.0776072754	-4.8400091554	3.86717021	D	1	10/21/2019 13:00:00	3	2	0	0	0.00000	0.00000	N/A	N/A	N/A	N/A	1	0.00000	0.00000	0.00000	0.00000	0.00000	0.00000	0.00000	0.00000	0.00000	0.00000	0.00000	0.00000	0.00000	0.00000	0.00000
249852	37	44	769267.8500	14.8600	0.0199780721	0.0776592665	-4.8400091554	3.86717021	D	1	10/21/2019 13:00:00	3	2	0	0	0.00000	0.00000	N/A	N/A	N/A	N/A	1	0.00000	0.00000	0.00000	0.00000	0.00000	0.00000	0.00000	0.00000	0.00000	0.00000	0.00000	0.00000	0.00000	0.00000	0.00000
249853	37	44	769267.8600	14.8700	0.0199915166	0.0777112606	-4.8395513848	3.86724651	D	1	10/21/2019 13:00:00	3	2	0	0	0.00000	0.00000	N/A	N/A	N/A	N/A	1	0.00000	0.00000	0.00000	0.00000	0.00000	0.00000	0.00000	0.00000	0.00000	0.00000	0.00000	0.00000	0.00000	0.00000	0.00000
249854	37	44	769267.8700	14.8800	0.0200049598	0.0777632497	-4.8397802701	3.86724651	D	1	10/21/2019 13:00:00	3	2	0	0	0.00000	0.00000	N/A	N/A	N/A	N/A	1	0.00000	0.00000	0.00000	0.00000	0.00000	0.00000	0.00000	0.00000	0.00000	0.00000	0.00000	0.00000	0.00000	0.00000	0.00000
249855	37	44	769267.8800	14.8900	0.0200184037	0.0778152383	-4.8400091554	3.86717021	D	1	10/21/2019 13:00:00	3	2	0	0	0.00000	0.00000	N/A	N/A	N/A	N/A	1	0.00000	0.00000	0.00000	0.00000	0.00000	0.00000	0.00000	0.00000	0.00000	0.00000	0.00000	0.00000	0.00000	0.00000	0.00000
249856	37	44	769267.8900	14.9000	0.0200318481	0.0778672283	-4.8400091554	3.86717021	D	1	10/21/2019 13:00:00	3	2	0	0	0.00000	0.00000	N/A	N/A	N/A	N/A	1	0.00000	0.00000	0.00000	0.00000	0.00000	0.00000	0.00000	0.00000	0.00000	0.00000	0.00000	0.00000	0.00000	0.00000	0.00000
249857	37	44	769267.9000	14.9100	0.0200452926	0.0779192183	-4.8404669261	3.86709392	D	1	10/21/2019 13:00:00	3	2	0	0	0.00000	0.00000	N/A	N/A	N/A	N/A	1	0.00000	0.00000	0.00000	0.00000	0.00000	0.00000	0.00000	0.00000	0.00000	0.00000	0.00000	0.00000	0.00000	0.00000	0.00000
249858	37	44	769267.9100	14.9200	0.0200587383	0.0779712153	-4.8397802701	3.86701762	D	1	10/21/2019 13:00:00	3	2	0	0	0.00000	0.00000	N/A	N/A	N/A	N/A	1	0.00000	0.00000	0.00000	0.00000	0.00000	0.00000	0.00000	0.00000	0.00000	0.00000	0.00000	0.00000	0.00000	0.00000	0.00000
249859	37	44	769267.9200	14.9300	0.0200721822	0.0780232039	-4.8400091554	3.86701762	D	1	10/21/2019 13:00:00	3	2	0	0	0.00000	0.00000	N/A	N/A	N/A	N/A	1	0.00000	0.00000	0.00000	0.00000	0.00000	0.00000	0.00000	0.00000	0.00000	0.00000	0.00000	0.00000	0.00000	0.00000	0.00000
249860	37	44	769267.9300	14.9400	0.0200856266	0.0780751939	-4.8395513848	3.86701762	D	1	10/21/2019 13:00:00	3	2	0	0	0.00000	0.00000	N/A	N/A	N/A	N/A	1	0.00000	0.00000	0.00000	0.00000	0.00000	0.00000	0.00000	0.00000	0.00000	0.00000	0.00000	0.00000	0.00000	0.00000	0.00000
249861	37	44	769267.9400	14.9500	0.0200990698	0.0781271769	-4.8397802701	3.86701762	D	1	10/21/2019 13:00:00	3	2	0	0	0.00000	0.00000	N/A	N/A	N/A	N/A	1	0.00000	0.00000	0.00000	0.00000	0.00000	0.00000	0.00000	0.00000	0.00000	0.00000	0.00000	0.00000	0.00000	0.00000	0.00000
249862	37	44	769267.9500	14.9600	0.0201125137	0.0781791665	-4.8402380407	3.86701762	D	1	10/21/2019 13:00:00	3	2	0	0	0.00000	0.00000	N/A	N/A	N/A	N/A	1	0.00000	0.00000	0.00000	0.00000	0.00000	0.00000	0.00000	0.00000	0.00000	0.00000	0.00000	0.00000	0.00000	0.00000	0.00000
249863	37	44	769267.9600	14.9700	0.0201259588	0.0782311600	-4.8397802701	3.86701762	D	1	10/21/2019 13:00:00	3	2	0	0	0.00000	0.00000	N/A	N/A	N/A	N/A	1	0.00000	0.00000	0.00000	0.00000	0.00000	0.00000	0.00000	0.00000	0.00000	0.00000	0.00000	0.00000	0.00000	0.00000	0.00000
249864	37	44	769267.9700	14.9800	0.0201394026	0.0782831496	-4.8400091554	3.86701762	D	1	10/21/2019 13:00:00	3	2	0	0	0.00000	0.00000	N/A	N/A	N/A	N/A	1	0.00000	0.00000	0.00000	0.00000	0.00000	0.00000	0.00000	0.00000	0.00000	0.00000	0.00000	0.00000	0.00000	0.00000	0.00000
249865	37	44	769267.9800	14.9900	0.0201528471	0.0783351334	-4.8397802701	3.86694133	D	1	10/21/2019 13:00:00	3	2	0	0	0.00000	0.00000	N/A	N/A	N/A	N/A	1	0.00000	0.00000	0.00000	0.00000	0.00000	0.00000	0.00000	0.00000	0.00000	0.00000	0.00000	0.00000	0.00000	0.00000	0.00000
249866	37	44	769267.9900	15.0000	0.0201662909	0.0783871199	-4.8400091554	3.86694133	D	1	10/21/2019 13:00:00	3	2	0	0	0.00000	0.00000	N/A	N/A	N/A	N/A	1	0.00000	0.00000	0.00000	0.00000	0.00000	0.00000	0.00000	0.00000	0.00000	0.00000	0.00000	0.00000	0.00000	0.00000	0.00000
249867	37	44	769268.0000	15.0100	0.0201797354	0.0784391069	-4.8402380407	3.86686503	D	1	10/21/2019 13:00:00	3	2	0	0	0.00000	0.00000	N/A	N/A	N/A	N/A	1	0.00000	0.00000	0.00000	0.00000	0.00000	0.00000	0.00000	0.00000	0.00000	0.00000	0.00000	0.00000	0.00000	0.00000	0.00000
249868	37	44	769268.0100	15.0200	0.0201931805	0.0784910983	-4.8400091554	3.86678874	D	1	10/21/2019 13:00:00	3	2	0	0	0.00000	0.00000	N/A	N/A	N/A	N/A	1	0.00000	0.00000	0.00000	0.00000	0.00000	0.00000	0.00000	0.00000	0.00000	0.00000	0.00000	0.00000	0.00000	0.00000	0.00000
249869	37	44	769268.0200	15.0300	0.0202066250	0.0785430832	-4.8400091554	3.86678874	D	1	10/21/2019 13:00:00	3	2	0	0	0.00000	0.00000	N/A	N/A	N/A	N/A	1	0.00000	0.00000	0.00000	0.00000	0.00000	0.00000	0.00000	0.00000	0.00000	0.00000	0.00000	0.00000	0.00000	0.00000	0.00000
249870	37	44	769268.0300	15.0400	0.0202200694	0.0785950670	-4.8393224994	3.86671244	D	1	10/21/2019 13:00:00	3	2	0	0	0.00000	0.00000	N/A	N/A	N/A	N/A	1	0.00000	0.00000	0.00000	0.00000	0.00000	0.00000	0.00000	0.00000	0.00000	0.00000	0.00000	0.00000	0.00000	0.00000	0.00000
249871	37	44	769268.0400	15.0500	0.0202335120	0.0786470466	-4.8393224994	3.86671244	D	1	10/21/2019 13:00:00	3	2	0	0	0.00000	0.00000	N/A	N/A	N/A	N/A	1	0.00000	0.00000	0.00000	0.00000	0.00000	0.00000	0.00000	0.00000	0.00000	0.00000	0.00000	0.00000	0.00000	0.00000	0.00000
249872	37	44	769268.0500	15.0600	0.0202469546	0.0786990271	-4.8397802701	3.86671244	D	1	10/21/2019 13:00:00	3	2	0	0	0.00000	0.00000	N/A	N/A	N/A	N/A	1	0.00000	0.00000	0.00000	0.00000	0.00000	0.00000	0.00000	0.00000	0.00000	0.00000	0.00000	0.00000	0.00000	0.00000	0.00000
249873	37	44	769268.0600	15.0700	0.0202603984	0.0787510137	-4.8397802701	3.86678874	D	1	10/21/2019 13:00:00	3	2	0	0	0.00000	0.00000	N/A	N/A	N/A	N/A	1	0.00000	0.00000	0.00000	0.00000	0.00000	0.00000	0.00000	0.00000	0.00000	0.00000	0.00000	0.00000	0.00000	0.00000	0.00000
249874	37	44	769268.0700	15.0800	0.0202738422	0.0788029940	-4.8402380407	3.86671244	D	1	10/21/2019 13:00:00	3	2	0	0	0.00000	0.00000	N/A	N/A	N/A	N/A	1	0.00000	0.00000	0.00000	0.00000	0.00000	0.00000	0.00000	0.00000	0.00000	0.00000	0.00000	0.00000	0.00000	0.00000	0.00000
249875	37	44	769268.0800	15.0900	0.0202872873	0.0788549793	-4.8402380407	3.86663615	D	1	10/21/2019 13:00:00	3	2	0	0	0.00000	0.00000	N/A	N/A	N/A	N/A	1	0.00000	0.00000	0.00000	0.00000	0.00000	0.00000	0.00000	0.00000	0.00000	0.00000	0.00000	0.00000	0.00000	0.00000	0.00000
249876	37	44	769268.0900	15.1000	0.0203007324	0.0789069687	-4.8397802701	3.86663615	D	1	10/21/2019 13:00:00	3	2	0	0	0.00000	0.00000	N/A	N/A	N/A	N/A	1	0.00000	0.00000	0.00000	0.00000	0.00000	0.00000	0.00000	0.00000	0.00000	0.00000	0.00000	0.00000	0.00000	0.00000	0.00000
249877	37	44	769268.1000	15.1100	0.0203141763	0.0789589532	-4.8397802701	3.86663615	D	1	10/21/2019 13:00:00	3	2	0	0	0.00000	0.00000	N/A	N/A	N/A	N/A	1	0.00000	0.00000	0.00000	0.00000	0.00000	0.00000	0.00000	0.00000	0.00000	0.00000	0.00000	0.00000	0.00000	0.00000	0.00000
249878	37	44	769268.1100	15.1200	0.0203276201	0.0790109345	-4.8397802701	3.86663615	D	1	10/21/2019 13:00:00	3	2	0	0	0.00000	0.00000	N/A	N/A	N/A	N/A	1	0.00000	0.00000	0.00000	0.00000	0.00000	0.00000	0.00000	0.00000	0.00000	0.00000	0.00000	0.00000	0.00000	0.00000	0.00000
249879	37	44	769268.1200	15.1300	0.0203410639	0.0790629200	-4.8397802701	3.86671244	D	1	10/21/2019 13:00:00	3	2	0	0	0.00000	0.00000	N/A	N/A	N/A	N/A	1	0.00000	0.00000	0.00000	0.00000	0.00000	0.00000	0.00000	0.00000	0.00000	0.00000	0.00000	0.00000	0.00000	0.00000	0.00000
249880	37	44	769268.1300	15.1400	0.0203545078	0.0791148983	-4.8402380407	3.86663615	D	1	10/21/2019 13:00:00	3	2	0	0	0.00000	0.00000	N/A	N/A	N/A	N/A	1	0.00000	0.00000	0.00000	0.00000	0.00000	0.00000	0.00000	0.00000	0.00000	0.00000	0.00000	0.00000	0.00000	0.00000	0.00000
249881	37	44	769268.1400	15.1500	0.0203679529	0.0791668857	-4.8402380407	3.86655985	D	1	10/21/2019 13:00:00	3	2	0	0	0.00000	0.00000	N/A	N/A	N/A	N/A	1	0.00000	0.00000	0.00000	0.00000	0.00000	0.00000	0.00000	0.00000	0.00000	0.00000	0.00000	0.00000	0.00000	0.00000	0.00000
249882	37	44	769268.1500	15.1600	0.0203813980	0.0792188720	-4.8404669261	3.86655985	D	1	10/21/2019 13:00:00	3	2	0	0	0.00000	0.00000	N/A	N/A	N/A	N/A	1	0.00000	0.00000	0.00000	0.00000	0.00000	0.00000	0.00000	0.00000	0.00000	0.00000	0.00000	0.00000	0.00000	0.00000	0.00000
249883	37	44	769268.1600	15.1700	0.0203948437	0.0792708607	-4.8400091554	3.86648356	D	1	10/21/2019 13:00:00	3	2	0	0	0.00000	0.00000	N/A	N/A	N/A	N/A	1	0.00000	0.00000	0.00000	0.00000	0.00000	0.00000	0.00000	0.00000	0.00000	0.00000	0.00000	0.00000	0.00000	0.00000	0.00000
249884	37	44	769268.1700	15.1800	0.0204082882	0.0793228436	-4.8395513848	3.86655985	D	1	10/21/2019 13:00:00	3	2	0	0	0.00000	0.00000	N/A	N/A	N/A	N/A	1	0.00000	0.00000	0.00000	0.00000	0.00000	0.00000	0.00000	0.00000	0.00000	0.00000	0.00000	0.00000	0.00000	0.00000	0.00000
249885	37	44	769268.1800	15.1900	0.0204217314	0.0793748204	-4.8400091554	3.86648356	D	1	10/21/2019 13:00:00	3	2	0	0	0.00000	0.00000	N/A	N/A	N/A	N/A	1	0.00000	0.00000	0.00000	0.00000	0.00000	0.00000	0.00000	0.00000	0.00000	0.00000	0.00000	0.00000	0.00000	0.00000	0.00000
249886	37	44	769268.1900	15.2000	0.0204351759	0.0794268043	-4.8395513848	3.86648356	D	1	10/21/2019 13:00:00	3	2	0	0	0.00000	0.00000	N/A	N/A	N/A	N/A	1	0.00000	0.00000	0.00000	0.00000	0.00000	0.00000	0.00000	0.00000	0.00000	0.00000	0.00000	0.00000	0.00000	0.00000	0.00000
249887	37	44	769268.2000	15.2100	0.0204486191	0.0794787812	-4.8402380407	3.86640726	D	1	10/21/2019 13:00:00	3	2	0	0	0.00000	0.00000	N/A	N/A	N/A	N/A	1	0.00000	0.00000	0.00000	0.00000	0.00000	0.00000	0.00000	0.00000	0.00000	0.00000	0.00000	0.00000	0.00000	0.00000	0.00000
249888	37	44	769268.2100	15.2200	0.0204620642	0.0795307665	-4.8400091554	3.86640726	D	1	10/21/2019 13:00:00	3	2	0	0	0.00000	0.00000	N/A	N/A	N/A	N/A	1	0.00000	0.00000	0.00000	0.00000	0.00000	0.00000	0.00000	0.00000	0.00000	0.00000	0.00000	0.00000	0.00000	0.00000	0.00000
249889	37	44	769268.2200	15.2300	0.0204755086	0.0795827493	-4.8397802701	3.86648356	D	1	10/21/2019 13:00:00	3	2	0	0	0.00000	0.00000	N/A	N/A	N/A	N/A	1	0.00000	0.00000	0.00000	0.00000	0.00000	0.00000	0.00000	0.00000	0.00000	0.00000	0.00000	0.00000	0.00000	0.00000	0.00000
249890	37	44	769268.2300	15.2400	0.0204889525	0.0796347296	-4.8397802701	3.86640726	D	1	10/21/2019 13:00:00	3	2	0	0	0.00000	0.00000	N/A	N/A	N/A	N/A	1	0.00000	0.00000	0.00000	0.00000	0.00000	0.00000	0.00000	0.00000	0.00000	0.00000	0.00000	0.00000	0.00000	0.00000	0.00000
249891	37	44	769268.2400	15.2500	0.0205023963	0.0796867100	-4.8397802701	3.86648356	D	1	10/21/2019 13:00:00	3	2	0	0	0.00000	0.00000	N/A	N/A	N/A	N/A	1	0.00000	0.00000	0.00000	0.00000	0.00000	0.00000	0.00000	0.00000	0.00000	0.00000	0.00000	0.00000	0.00000	0.00000	0.00000
249892	37	44	769268.2500	15.2600	0.0205158401	0.0797386914	-4.8397802701	3.86648356	D	1	10/21/2019 13:00:00	3	2	0	0	0.00000	0.00000	N/A	N/A	N/A	N/A	1	0.00000	0.00000	0.00000	0.00000	0.00000	0.00000	0.00000	0.00000	0.00000	0.00000	0.00000	0.00000	0.00000	0.00000	0.00000
249893	37	44	769268.2600	15.2700	0.0205292840	0.0797906666	-4.8402380407	3.86640726	D	1	10/21/2019 13:00:00	3	2	0	0	0.00000	0.00000	N/A	N/A	N/A	N/A	1	0.00000	0.00000	0.00000	0.00000	0.00000	0.00000	0.00000	0.00000	0.00000	0.00000	0.00000	0.00000	0.00000	0.00000	0.00000
249894	37	44	769268.2700	15.2800	0.0205427291	0.0798426499	-4.8404669261	3.86633097	D	1	10/21/2019 13:00:00	3	2	0	0	0.00000	0.00000	N/A	N/A	N/A	N/A	1	0.00000	0.00000	0.00000	0.00000	0.00000	0.00000	0.00000	0.00000	0.00000	0.00000	0.00000	0.00000	0.00000	0.00000	0.00000
249895	37	44	769268.2800	15.2900	0.0205561748	0.0798946366	-4.8397802701	3.86633097	D	1	10/21/2019 13:00:00	3	2	0	0	0.00000	0.00000	N/A	N/A	N/A	N/A	1	0.00000	0.00000	0.00000	0.00000	0.00000	0.00000	0.00000	0.00000	0.00000	0.00000	0.00000	0.00000	0.00000	0.00000	0.00000
249896	37	44	769268.2900	15.3000	0.0205696187	0.0799466149	-4.8397802701	3.86625467	D	1	10/21/2019 13:00:00	3	2	0	0	0.00000	0.00000	N/A	N/A	N/A	N/A	1	0.00000	0.00000	0.00000	0.00000	0.00000	0.00000	0.00000	0.00000	0.00000	0.00000	0.00000	0.00000	0.00000	0.00000	0.00000
249897	37	44	769268.3000	15.3100	0.0205830625	0.0799985922	-4.8400091554	3.86633097	D	1	10/21/2019 13:00:00	3	2	0	0	0.00000	0.00000	N/A	N/A	N/A	N/A	1	0.00000	0.00000	0.00000	0.00000	0.00000	0.00000	0.00000	0.00000	0.00000	0.00000	0.00000	0.00000	0.00000	0.00000	0.00000
249898	37	44	769268.3100	15.3200	0.0205965070	0.0800505699	-4.8395513848	3.86625467	D	1	10/21/2019 13:00:00	3	2	0	0	0.00000	0.00000	N/A	N/A	N/A	N/A	1	0.00000	0.00000	0.00000	0.00000	0.00000	0.00000	0.00000	0.00000	0.00000	0.00000	0.00000	0.00000	0.00000	0.00000	0.00000
249899	37	44	769268.3200	15.3300	0.0206099502	0.0801025457	-4.8402380407	3.86625467	D	1	10/21/2019 13:00:00	3	2	0	0	0.00000	0.00000	N/A	N/A	N/A	N/A	1	0.00000	0.00000	0.00000	0.00000	0.00000	0.00000	0.00000	0.00000	0.00000	0.00000	0.00000	0.00000	0.00000	0.00000	0.00000
249900	37	44	769268.3300	15.3400	0.0206233953	0.0801545279	-4.8397802701	3.86617838	D	1	10/21/2019 13:00:00	3	2	0	0	0.00000	0.00000	N/A	N/A	N/A	N/A	1	0.00000	0.00000	0.00000	0.00000	0.00000	0.00000	0.00000	0.00000	0.00000	0.00000	0.00000	0.00000	0.00000	0.00000	0.00000
249901	37	44	769268.3400	15.3500	0.0206368391	0.0802065052	-4.8397802701	3.86617838	D	1	10/21/2019 13:00:00	3	2	0	0	0.00000	0.00000	N/A	N/A	N/A	N/A	1	0.00000	0.00000	0.00000	0.00000	0.00000	0.00000	0.00000	0.00000	0.00000	0.00000	0.00000	0.00000	0.00000	0.00000	0.00000
249902	37	44	769268.3500	15.3600	0.0206502829	0.0802584815	-4.8400091554	3.86625467	D	1	10/21/2019 13:00:00	3	2	0	0	0.00000	0.00000	N/A	N/A	N/A	N/A	1	0.00000	0.00000	0.00000	0.00000	0.00000	0.00000	0.00000	0.00000	0.00000	0.00000	0.00000	0.00000	0.00000	0.00000	0.00000
249903	37	44	769268.3600	15.3700	0.0206637274	0.0803104612	-4.8397802701	3.86617838	D	1	10/21/2019 13:00:00	3	2	0	0	0.00000	0.00000	N/A	N/A	N/A	N/A	1	0.00000	0.00000	0.00000	0.00000	0.00000	0.00000	0.00000	0.00000	0.00000	0.00000	0.00000	0.00000	0.00000	0.00000	0.00000
249904	37	44	769268.3700	15.3800	0.0206771712	0.0803624385	-4.8402380407	3.86617838	D	1	10/21/2019 13:00:00	3	2	0	0	0.00000	0.00000	N/A	N/A	N/A	N/A	1	0.00000	0.00000	0.00000	0.00000	0.00000	0.00000	0.00000	0.00000	0.00000	0.00000	0.00000	0.00000	0.00000	0.00000	0.00000
249905	37	44	769268.3800	15.3900	0.0206906163	0.0804144186	-4.8397802701	3.86617838	D	1	10/21/2019 13:00:00	3	2	0	0	0.00000	0.00000	N/A	N/A	N/A	N/A	1	0.00000	0.00000	0.00000	0.00000	0.00000	0.00000	0.00000	0.00000	0.00000	0.00000	0.00000	0.00000	0.00000	0.00000	0.00000
249906	37	44	769268.3900	15.4000	0.0207040602	0.0804663949	-4.8397802701	3.86617838	D	1	10/21/2019 13:00:00	3	2	0	0	0.00000	0.00000	N/A	N/A	N/A	N/A	1	0.00000	0.00000	0.00000	0.00000	0.00000	0.00000	0.00000	0.00000	0.00000	0.00000	0.00000	0.00000	0.00000	0.00000	0.00000
249907	37	44	769268.4000	15.4100	0.0207175040	0.0805183701	-4.8397802701	3.86610208	D	1	10/21/2019 13:00:00	3	2	0	0	0.00000	0.00000	N/A	N/A	N/A	N/A	1	0.00000	0.00000	0.00000	0.00000	0.00000	0.00000	0.00000	0.00000	0.00000	0.00000	0.00000	0.00000	0.00000	0.00000	0.00000
249908	37	44	769268.4100	15.4200	0.0207309478	0.0805703474	-4.8400091554	3.86610208	D	1	10/21/2019 13:00:00	3	2	0	0	0.00000	0.00000	N/A	N/A	N/A	N/A	1	0.00000	0.00000	0.00000	0.00000	0.00000	0.00000	0.00000	0.00000	0.00000	0.00000	0.00000	0.00000	0.00000	0.00000	0.00000
249909	37	44	769268.4200	15.4300	0.0207443923	0.0806223261	-4.8397802701	3.86617838	D	1	10/21/2019 13:00:00	3	2	0	0	0.00000	0.00000	N/A	N/A	N/A	N/A	1	0.00000	0.00000	0.00000	0.00000	0.00000	0.00000	0.00000	0.00000	0.00000	0.00000	0.00000	0.00000	0.00000	0.00000	0.00000
249910	37	44	769268.4300	15.4400	0.0207578361	0.0806743055	-4.8400091554	3.86617838	D	1	10/21/2019 13:00:00	3	2	0	0	0.00000	0.00000	N/A	N/A	N/A	N/A	1	0.00000	0.00000	0.00000	0.00000	0.00000	0.00000	0.00000	0.00000	0.00000	0.00000	0.00000	0.00000	0.00000	0.00000	0.00000
249911	37	44	769268.4400	15.4500	0.0207712806	0.0807262832	-4.8397802701	3.86617838	D	1	10/21/2019 13:00:00	3	2	0	0	0.00000	0.00000	N/A	N/A	N/A	N/A	1	0.00000	0.00000	0.00000	0.00000	0.00000	0.00000	0.00000	0.00000	0.00000	0.00000	0.00000	0.00000	0.00000	0.00000	0.00000
249912	37	44	769268.4500	15.4600	0.0207847244	0.0807782564	-4.8397802701	3.86610208	D	1	10/21/2019 13:00:00	3	2	0	0	0.00000	0.00000	N/A	N/A	N/A	N/A	1	0.00000	0.00000	0.00000	0.00000	0.00000	0.00000	0.00000	0.00000	0.00000	0.00000	0.00000	0.00000	0.00000	0.00000	0.00000
249913	37	44	769268.4600	15.4700	0.0207981683	0.0808302285	-4.8404669261	3.86602579	D	1	10/21/2019 13:00:00	3	2	0	0	0.00000	0.00000	N/A	N/A	N/A	N/A	1	0.00000	0.00000	0.00000	0.00000	0.00000	0.00000	0.00000	0.00000	0.00000	0.00000	0.00000	0.00000	0.00000	0.00000	0.00000
249914	37	44	769268.4700	15.4800	0.0208116140	0.0808822111	-4.8400091554	3.86594949	D	1	10/21/2019 13:00:00	3	2	0	0	0.00000	0.00000	N/A	N/A	N/A	N/A	1	0.00000	0.00000	0.00000	0.00000	0.00000	0.00000	0.00000	0.00000	0.00000	0.00000	0.00000	0.00000	0.00000	0.00000	0.00000
249915	37	44	769268.4800	15.4900	0.0208250585	0.0809341837	-4.8400091554	3.86587320	D	1	10/21/2019 13:00:00	3	2	0	0	0.00000	0.00000	N/A	N/A	N/A	N/A	1	0.00000	0.00000	0.00000	0.00000	0.00000	0.00000	0.00000	0.00000	0.00000	0.00000	0.00000	0.00000	0.00000	0.00000	0.00000
249916	37	44	769268.4900	15.5000	0.0208385030	0.0809861604	-4.8402380407	3.86587320	D	1	10/21/2019 13:00:00	3	2	0	0	0.00000	0.00000	N/A	N/A	N/A	N/A	1	0.00000	0.00000	0.00000	0.00000	0.00000	0.00000	0.00000	0.00000	0.00000	0.00000	0.00000	0.00000	0.00000	0.00000	0.00000
249917	37	44	769268.5000	15.5100	0.0208519481	0.0810381374	-4.8395513848	3.86587320	D	1	10/21/2019 13:00:00	3	2	0	0	0.00000	0.00000	N/A	N/A	N/A	N/A	1	0.00000	0.00000	0.00000	0.00000	0.00000	0.00000	0.00000	0.00000	0.00000	0.00000	0.00000	0.00000	0.00000	0.00000	0.00000
249918	37	44	769268.5100	15.5200	0.0208653913	0.0810901041	-4.8397802701	3.86579690	D	1	10/21/2019 13:00:00	3	2	0	0	0.00000	0.00000	N/A	N/A	N/A	N/A	1	0.00000	0.00000	0.00000	0.00000	0.00000	0.00000	0.00000	0.00000	0.00000	0.00000	0.00000	0.00000	0.00000	0.00000	0.00000
249919	37	44	769268.5200	15.5300	0.0208788351	0.0811420772	-4.8400091554	3.86587320	D	1	10/21/2019 13:00:00	3	2	0	0	0.00000	0.00000	N/A	N/A	N/A	N/A	1	0.00000	0.00000	0.00000	0.00000	0.00000	0.00000	0.00000	0.00000	0.00000	0.00000	0.00000	0.00000	0.00000	0.00000	0.00000
249920	37	44	769268.5300	15.5400	0.0208922796	0.0811940529	-4.8393224994	3.86579690	D	1	10/21/2019 13:00:00	3	2	0	0	0.00000	0.00000	N/A	N/A	N/A	N/A	1	0.00000	0.00000	0.00000	0.00000	0.00000	0.00000	0.00000	0.00000	0.00000	0.00000	0.00000	0.00000	0.00000	0.00000	0.00000
249921	37	44	769268.5400	15.5500	0.0209057221	0.0812460222	-4.8397802701	3.86587320	D	1	10/21/2019 13:00:00	3	2	0	0	0.00000	0.00000	N/A	N/A	N/A	N/A	1	0.00000	0.00000	0.00000	0.00000	0.00000	0.00000	0.00000	0.00000	0.00000	0.00000	0.00000	0.00000	0.00000	0.00000	0.00000
249922	37	44	769268.5500	15.5600	0.0209191660	0.0812979954	-4.8402380407	3.86594949	D	1	10/21/2019 13:00:00	3	2	0	0	0.00000	0.00000	N/A	N/A	N/A	N/A	1	0.00000	0.00000	0.00000	0.00000	0.00000	0.00000	0.00000	0.00000	0.00000	0.00000	0.00000	0.00000	0.00000	0.00000	0.00000
249923	37	44	769268.5600	15.5700	0.0209326111	0.0813499663	-4.8395513848	3.86579690	D	1	10/21/2019 13:00:00	3	2	0	0	0.00000	0.00000	N/A	N/A	N/A	N/A	1	0.00000	0.00000	0.00000	0.00000	0.00000	0.00000	0.00000	0.00000	0.00000	0.00000	0.00000	0.00000	0.00000	0.00000	0.00000
249924	37	44	769268.5700	15.5800	0.0209460543	0.0814019360	-4.8402380407	3.86579690	D	1	10/21/2019 13:00:00	3	2	0	0	0.00000	0.00000	N/A	N/A	N/A	N/A	1	0.00000	0.00000	0.00000	0.00000	0.00000	0.00000	0.00000	0.00000	0.00000	0.00000	0.00000	0.00000	0.00000	0.00000	0.00000
249925	37	44	769268.5800	15.5900	0.0209594994	0.0814539130	-4.8400091554	3.86572061	D	1	10/21/2019 13:00:00	3	2	0	0	0.00000	0.00000	N/A	N/A	N/A	N/A	1	0.00000	0.00000	0.00000	0.00000	0.00000	0.00000	0.00000	0.00000	0.00000	0.00000	0.00000	0.00000	0.00000	0.00000	0.00000
249926	37	44	769268.5900	15.6000	0.0209729438	0.0815058887	-4.8400091554	3.86572061	D	1	10/21/2019 13:00:00	3	2	0	0	0.00000	0.00000	N/A	N/A	N/A	N/A	1	0.00000	0.00000	0.00000	0.00000	0.00000	0.00000	0.00000	0.00000	0.00000	0.00000	0.00000	0.00000	0.00000	0.00000	0.00000
249927	37	44	769268.6000	15.6100	0.0209863883	0.0815578613	-4.8402380407	3.86579690	D	1	10/21/2019 13:00:00	3	2	0	0	0.00000	0.00000	N/A	N/A	N/A	N/A	1	0.00000	0.00000	0.00000	0.00000	0.00000	0.00000	0.00000	0.00000	0.00000	0.00000	0.00000	0.00000	0.00000	0.00000	0.00000
249928	37	44	769268.6100	15.6200	0.0209998334	0.0816098352	-4.8402380407	3.86579690	D	1	10/21/2019 13:00:00	3	2	0	0	0.00000	0.00000	N/A	N/A	N/A	N/A	1	0.00000	0.00000	0.00000	0.00000	0.00000	0.00000	0.00000	0.00000	0.00000	0.00000	0.00000	0.00000	0.00000	0.00000	0.00000
249929	37	44	769268.6200	15.6300	0.0210132785	0.0816618092	-4.8402380407	3.86572061	D	1	10/21/2019 13:00:00	3	2	0	0	0.00000	0.00000	N/A	N/A	N/A	N/A	1	0.00000	0.00000	0.00000	0.00000	0.00000	0.00000	0.00000	0.00000	0.00000	0.00000	0.00000	0.00000	0.00000	0.00000	0.00000
249930	37	44	769268.6300	15.6400	0.0210267236	0.0817137873	-4.8397802701	3.86572061	D	1	10/21/2019 13:00:00	3	2	0	0	0.00000	0.00000	N/A	N/A	N/A	N/A	1	0.00000	0.00000	0.00000	0.00000	0.00000	0.00000	0.00000	0.00000	0.00000	0.00000	0.00000	0.00000	0.00000	0.00000	0.00000
249931	37	44	769268.6400	15.6500	0.0210401675	0.0817657554	-4.8397802701	3.86564431	D	1	10/21/2019 13:00:00	3	2	0	0	0.00000	0.00000	N/A	N/A	N/A	N/A	1	0.00000	0.00000	0.00000	0.00000	0.00000	0.00000	0.00000	0.00000	0.00000	0.00000	0.00000	0.00000	0.00000	0.00000	0.00000
249932	37	44	769268.6500	15.6600	0.0210536113	0.0818177255	-4.8395513848	3.86572061	D	1	10/21/2019 13:00:00	3	2	0	0	0.00000	0.00000	N/A	N/A	N/A	N/A	1	0.00000	0.00000	0.00000	0.00000	0.00000	0.00000	0.00000	0.00000	0.00000	0.00000	0.00000	0.00000	0.00000	0.00000	0.00000
249933	37	44	769268.6600	15.6700	0.0210670545	0.0818696952	-4.8395513848	3.86572061	D	1	10/21/2019 13:00:00	3	2	0	0	0.00000	0.00000	N/A	N/A	N/A	N/A	1	0.00000	0.00000	0.00000	0.00000	0.00000	0.00000	0.00000	0.00000	0.00000	0.00000	0.00000	0.00000	0.00000	0.00000	0.00000
249934	37	44	769268.6700	15.6800	0.0210804977	0.0819216639	-4.8397802701	3.86572061	D	1	10/21/2019 13:00:01	3	2	0	0	0.00000	0.00000	N/A	N/A	N/A	N/A	1	0.00000	0.00000	0.00000	0.00000	0.00000	0.00000	0.00000	0.00000	0.00000	0.00000	0.00000	0.00000	0.00000	0.00000	0.00000
249935	37	44	769268.6800	15.6900	0.0210939415	0.0819736309	-4.8400091554	3.86572061	D	1	10/21/2019 13:00:01	3	2	0	0	0.00000	0.00000	N/A	N/A	N/A	N/A	1	0.00000	0.00000	0.00000	0.00000	0.00000	0.00000	0.00000	0.00000	0.00000	0.00000	0.00000	0.00000	0.00000	0.00000	0.00000
249936	37	44	769268.6900	15.7000	0.0211073860	0.0820256035	-4.8400091554	3.86572061	D	1	10/21/2019 13:00:01	3	2	0	0	0.00000	0.00000	N/A	N/A	N/A	N/A	1	0.00000	0.00000	0.00000	0.00000	0.00000	0.00000	0.00000	0.00000	0.00000	0.00000	0.00000	0.00000	0.00000	0.00000	0.00000
249937	37	44	769268.7000	15.7100	0.0211208305	0.0820775750	-4.8400091554	3.86564431	D	1	10/21/2019 13:00:01	3	2	0	0	0.00000	0.00000	N/A	N/A	N/A	N/A	1	0.00000	0.00000	0.00000	0.00000	0.00000	0.00000	0.00000	0.00000	0.00000	0.00000	0.00000	0.00000	0.00000	0.00000	0.00000
249938	37	44	769268.7100	15.7200	0.0211342749	0.0821295445	-4.8402380407	3.86556802	D	1	10/21/2019 13:00:01	3	2	0	0	0.00000	0.00000	N/A	N/A	N/A	N/A	1	0.00000	0.00000	0.00000	0.00000	0.00000	0.00000	0.00000	0.00000	0.00000	0.00000	0.00000	0.00000	0.00000	0.00000	0.00000
249939	37	44	769268.7200	15.7300	0.0211477200	0.0821815185	-4.8400091554	3.86556802	D	1	10/21/2019 13:00:01	3	2	0	0	0.00000	0.00000	N/A	N/A	N/A	N/A	1	0.00000	0.00000	0.00000	0.00000	0.00000	0.00000	0.00000	0.00000	0.00000	0.00000	0.00000	0.00000	0.00000	0.00000	0.00000
249940	37	44	769268.7300	15.7400	0.0211611645	0.0822334890	-4.8400091554	3.86556802	D	1	10/21/2019 13:00:01	3	2	0	0	0.00000	0.00000	N/A	N/A	N/A	N/A	1	0.00000	0.00000	0.00000	0.00000	0.00000	0.00000	0.00000	0.00000	0.00000	0.00000	0.00000	0.00000	0.00000	0.00000	0.00000
249941	37	44	769268.7400	15.7500	0.0211746090	0.0822854585	-4.8400091554	3.86549172	D	1	10/21/2019 13:00:01	3	2	0	0	0.00000	0.00000	N/A	N/A	N/A	N/A	1	0.00000	0.00000	0.00000	0.00000	0.00000	0.00000	0.00000	0.00000	0.00000	0.00000	0.00000	0.00000	0.00000	0.00000	0.00000
249942	37	44	769268.7500	15.7600	0.0211880535	0.0823374311	-4.8397802701	3.86556802	D	1	10/21/2019 13:00:01	3	2	0	0	0.00000	0.00000	N/A	N/A	N/A	N/A	1	0.00000	0.00000	0.00000	0.00000	0.00000	0.00000	0.00000	0.00000	0.00000	0.00000	0.00000	0.00000	0.00000	0.00000	0.00000
249943	37	44	769268.7700	15.7800	0.0212149411	0.0824413651	-4.8400091554	3.86556802	D	1	10/21/2019 13:00:01	3	2	0	0	0.00000	0.00000	N/A	N/A	N/A	N/A	1	0.00000	0.00000	0.00000	0.00000	0.00000	0.00000	0.00000	0.00000	0.00000	0.00000	0.00000	0.00000	0.00000	0.00000	0.00000
249944	37	44	769268.7800	15.7900	0.0212283856	0.0824933336	-4.8395513848	3.86549172	D	1	10/21/2019 13:00:01	3	2	0	0	0.00000	0.00000	N/A	N/A	N/A	N/A	1	0.00000	0.00000	0.00000	0.00000	0.00000	0.00000	0.00000	0.00000	0.00000	0.00000	0.00000	0.00000	0.00000	0.00000	0.00000
249945	37	44	769268.7900	15.8000	0.0212418288	0.0825452951	-4.8397802701	3.86541543	D	1	10/21/2019 13:00:01	3	2	0	0	0.00000	0.00000	N/A	N/A	N/A	N/A	1	0.00000	0.00000	0.00000	0.00000	0.00000	0.00000	0.00000	0.00000	0.00000	0.00000	0.00000	0.00000	0.00000	0.00000	0.00000
249946	37	44	769268.8000	15.8100	0.0212552726	0.0825972631	-4.8397802701	3.86541543	D	1	10/21/2019 13:00:01	3	2	0	0	0.00000	0.00000	N/A	N/A	N/A	N/A	1	0.00000	0.00000	0.00000	0.00000	0.00000	0.00000	0.00000	0.00000	0.00000	0.00000	0.00000	0.00000	0.00000	0.00000	0.00000
249947	37	44	769268.8100	15.8200	0.0212687165	0.0826492281	-4.8397802701	3.86533913	D	1	10/21/2019 13:00:01	3	2	0	0	0.00000	0.00000	N/A	N/A	N/A	N/A	1	0.00000	0.00000	0.00000	0.00000	0.00000	0.00000	0.00000	0.00000	0.00000	0.00000	0.00000	0.00000	0.00000	0.00000	0.00000
249948	37	44	769268.8200	15.8300	0.0212821603	0.0827011962	-4.8402380407	3.86541543	D	1	10/21/2019 13:00:01	3	2	0	0	0.00000	0.00000	N/A	N/A	N/A	N/A	1	0.00000	0.00000	0.00000	0.00000	0.00000	0.00000	0.00000	0.00000	0.00000	0.00000	0.00000	0.00000	0.00000	0.00000	0.00000
249949	37	44	769268.8300	15.8400	0.0212956054	0.0827531671	-4.8397802701	3.86541543	D	1	10/21/2019 13:00:01	3	2	0	0	0.00000	0.00000	N/A	N/A	N/A	N/A	1	0.00000	0.00000	0.00000	0.00000	0.00000	0.00000	0.00000	0.00000	0.00000	0.00000	0.00000	0.00000	0.00000	0.00000	0.00000
249950	37	44	769268.8400	15.8500	0.0213090492	0.0828051331	-4.8397802701	3.86541543	D	1	10/21/2019 13:00:01	3	2	0	0	0.00000	0.00000	N/A	N/A	N/A	N/A	1	0.00000	0.00000	0.00000	0.00000	0.00000	0.00000	0.00000	0.00000	0.00000	0.00000	0.00000	0.00000	0.00000	0.00000	0.00000
249951	37	44	769268.8500	15.8600	0.0213224931	0.0828570991	-4.8397802701	3.86541543	D	1	10/21/2019 13:00:01	3	2	0	0	0.00000	0.00000	N/A	N/A	N/A	N/A	1	0.00000	0.00000	0.00000	0.00000	0.00000	0.00000	0.00000	0.00000	0.00000	0.00000	0.00000	0.00000	0.00000	0.00000	0.00000
249952	37	44	769268.8600	15.8700	0.0213359369	0.0829090630	-4.8397802701	3.86533913	D	1	10/21/2019 13:00:01	3	2	0	0	0.00000	0.00000	N/A	N/A	N/A	N/A	1	0.00000	0.00000	0.00000	0.00000	0.00000	0.00000	0.00000	0.00000	0.00000	0.00000	0.00000	0.00000	0.00000	0.00000	0.00000
249953	37	44	769268.8700	15.8800	0.0213493807	0.0829610260	-4.8402380407	3.86526284	D	1	10/21/2019 13:00:01	3	2	0	0	0.00000	0.00000	N/A	N/A	N/A	N/A	1	0.00000	0.00000	0.00000	0.00000	0.00000	0.00000	0.00000	0.00000	0.00000	0.00000	0.00000	0.00000	0.00000	0.00000	0.00000
249954	37	44	769268.8800	15.8900	0.0213628258	0.0830129979	-4.8397802701	3.86533913	D	1	10/21/2019 13:00:01	3	2	0	0	0.00000	0.00000	N/A	N/A	N/A	N/A	1	0.00000	0.00000	0.00000	0.00000	0.00000	0.00000	0.00000	0.00000	0.00000	0.00000	0.00000	0.00000	0.00000	0.00000	0.00000
249955	37	44	769268.8900	15.9000	0.0213762697	0.0830649608	-4.8402380407	3.86526284	D	1	10/21/2019 13:00:01	3	2	0	0	0.00000	0.00000	N/A	N/A	N/A	N/A	1	0.00000	0.00000	0.00000	0.00000	0.00000	0.00000	0.00000	0.00000	0.00000	0.00000	0.00000	0.00000	0.00000	0.00000	0.00000
249956	37	44	769268.9000	15.9100	0.0213897148	0.0831169307	-4.8400091554	3.86526284	D	1	10/21/2019 13:00:01	3	2	0	0	0.00000	0.00000	N/A	N/A	N/A	N/A	1	0.00000	0.00000	0.00000	0.00000	0.00000	0.00000	0.00000	0.00000	0.00000	0.00000	0.00000	0.00000	0.00000	0.00000	0.00000
249957	37	44	769268.9100	15.9200	0.0214031593	0.0831688961	-4.8400091554	3.86526284	D	1	10/21/2019 13:00:01	3	2	0	0	0.00000	0.00000	N/A	N/A	N/A	N/A	1	0.00000	0.00000	0.00000	0.00000	0.00000	0.00000	0.00000	0.00000	0.00000	0.00000	0.00000	0.00000	0.00000	0.00000	0.00000
249958	37	44	769268.9200	15.9300	0.0214166037	0.0832208656	-4.8397802701	3.86526284	D	1	10/21/2019 13:00:01	3	2	0	0	0.00000	0.00000	N/A	N/A	N/A	N/A	1	0.00000	0.00000	0.00000	0.00000	0.00000	0.00000	0.00000	0.00000	0.00000	0.00000	0.00000	0.00000	0.00000	0.00000	0.00000
249959	37	44	769268.9300	15.9400	0.0214300476	0.0832728296	-4.8397802701	3.86526284	D	1	10/21/2019 13:00:01	3	2	0	0	0.00000	0.00000	N/A	N/A	N/A	N/A	1	0.00000	0.00000	0.00000	0.00000	0.00000	0.00000	0.00000	0.00000	0.00000	0.00000	0.00000	0.00000	0.00000	0.00000	0.00000
249960	37	44	769268.9400	15.9500	0.0214434914	0.0833247915	-4.8397802701	3.86526284	D	1	10/21/2019 13:00:01	3	2	0	0	0.00000	0.00000	N/A	N/A	N/A	N/A	1	0.00000	0.00000	0.00000	0.00000	0.00000	0.00000	0.00000	0.00000	0.00000	0.00000	0.00000	0.00000	0.00000	0.00000	0.00000
249961	37	44	769268.9500	15.9600	0.0214569352	0.0833767544	-4.8397802701	3.86526284	D	1	10/21/2019 13:00:01	3	2	0	0	0.00000	0.00000	N/A	N/A	N/A	N/A	1	0.00000	0.00000	0.00000	0.00000	0.00000	0.00000	0.00000	0.00000	0.00000	0.00000	0.00000	0.00000	0.00000	0.00000	0.00000
249962	37	44	769268.9600	15.9700	0.0214703791	0.0834287173	-4.8402380407	3.86518654	D	1	10/21/2019 13:00:01	3	2	0	0	0.00000	0.00000	N/A	N/A	N/A	N/A	1	0.00000	0.00000	0.00000	0.00000	0.00000	0.00000	0.00000	0.00000	0.00000	0.00000	0.00000	0.00000	0.00000	0.00000	0.00000
249963	37	44	769268.9700	15.9800	0.0214838242	0.0834806852	-4.8397802701	3.86511025	D	1	10/21/2019 13:00:01	3	2	0	0	0.00000	0.00000	N/A	N/A	N/A	N/A	1	0.00000	0.00000	0.00000	0.00000	0.00000	0.00000	0.00000	0.00000	0.00000	0.00000	0.00000	0.00000	0.00000	0.00000	0.00000
249964	37	44	769268.9800	15.9900	0.0214972680	0.0835326471	-4.8400091554	3.86511025	D	1	10/21/2019 13:00:01	3	2	0	0	0.00000	0.00000	N/A	N/A	N/A	N/A	1	0.00000	0.00000	0.00000	0.00000	0.00000	0.00000	0.00000	0.00000	0.00000	0.00000	0.00000	0.00000	0.00000	0.00000	0.00000
249965	37	44	769268.9900	16.0000	0.0215107125	0.0835846135	-4.8400091554	3.86518654	D	1	10/21/2019 13:00:01	3	2	0	0	0.00000	0.00000	N/A	N/A	N/A	N/A	1	0.00000	0.00000	0.00000	0.00000	0.00000	0.00000	0.00000	0.00000	0.00000	0.00000	0.00000	0.00000	0.00000	0.00000	0.00000
249966	37	44	769269.0000	16.0100	0.0215241569	0.0836365788	-4.8397802701	3.86518654	D	1	10/21/2019 13:00:01	3	2	0	0	0.00000	0.00000	N/A	N/A	N/A	N/A	1	0.00000	0.00000	0.00000	0.00000	0.00000	0.00000	0.00000	0.00000	0.00000	0.00000	0.00000	0.00000	0.00000	0.00000	0.00000
249967	37	44	769269.0100	16.0200	0.0215376008	0.0836885387	-4.8402380407	3.86511025	D	1	10/21/2019 13:00:01	3	2	0	0	0.00000	0.00000	N/A	N/A	N/A	N/A	1	0.00000	0.00000	0.00000	0.00000	0.00000	0.00000	0.00000	0.00000	0.00000	0.00000	0.00000	0.00000	0.00000	0.00000	0.00000
249968	37	44	769269.0200	16.0300	0.0215510459	0.0837405055	-4.8397802701	3.86511025	D	1	10/21/2019 13:00:01	3	2	0	0	0.00000	0.00000	N/A	N/A	N/A	N/A	1	0.00000	0.00000	0.00000	0.00000	0.00000	0.00000	0.00000	0.00000	0.00000	0.00000	0.00000	0.00000	0.00000	0.00000	0.00000
249969	37	44	769269.0300	16.0400	0.0215644897	0.0837924684	-4.8400091554	3.86511025	D	1	10/21/2019 13:00:01	3	2	0	0	0.00000	0.00000	N/A	N/A	N/A	N/A	1	0.00000	0.00000	0.00000	0.00000	0.00000	0.00000	0.00000	0.00000	0.00000	0.00000	0.00000	0.00000	0.00000	0.00000	0.00000
249970	37	44	769269.0400	16.0500	0.0215779342	0.0838444307	-4.8400091554	3.86503395	D	1	10/21/2019 13:00:01	3	2	0	0	0.00000	0.00000	N/A	N/A	N/A	N/A	1	0.00000	0.00000	0.00000	0.00000	0.00000	0.00000	0.00000	0.00000	0.00000	0.00000	0.00000	0.00000	0.00000	0.00000	0.00000
249971	37	44	769269.0500	16.0600	0.0215913787	0.0838963941	-4.8395513848	3.86503395	D	1	10/21/2019 13:00:01	3	2	0	0	0.00000	0.00000	N/A	N/A	N/A	N/A	1	0.00000	0.00000	0.00000	0.00000	0.00000	0.00000	0.00000	0.00000	0.00000	0.00000	0.00000	0.00000	0.00000	0.00000	0.00000
249972	37	44	769269.0600	16.0700	0.0216048219	0.0839483525	-4.8397802701	3.86503395	D	1	10/21/2019 13:00:01	3	2	0	0	0.00000	0.00000	N/A	N/A	N/A	N/A	1	0.00000	0.00000	0.00000	0.00000	0.00000	0.00000	0.00000	0.00000	0.00000	0.00000	0.00000	0.00000	0.00000	0.00000	0.00000
249973	37	44	769269.0700	16.0800	0.0216182657	0.0840003113	-4.8402380407	3.86495766	D	1	10/21/2019 13:00:01	3	2	0	0	0.00000	0.00000	N/A	N/A	N/A	N/A	1	0.00000	0.00000	0.00000	0.00000	0.00000	0.00000	0.00000	0.00000	0.00000	0.00000	0.00000	0.00000	0.00000	0.00000	0.00000
249974	37	44	769269.0800	16.0900	0.0216317108	0.0840522751	-4.8402380407	3.86495766	D	1	10/21/2019 13:00:01	3	2	0	0	0.00000	0.00000	N/A	N/A	N/A	N/A	1	0.00000	0.00000	0.00000	0.00000	0.00000	0.00000	0.00000	0.00000	0.00000	0.00000	0.00000	0.00000	0.00000	0.00000	0.00000
249975	37	44	769269.0900	16.1000	0.0216451559	0.0841042408	-4.8397802701	3.86495766	D	1	10/21/2019 13:00:01	3	2	0	0	0.00000	0.00000	N/A	N/A	N/A	N/A	1	0.00000	0.00000	0.00000	0.00000	0.00000	0.00000	0.00000	0.00000	0.00000	0.00000	0.00000	0.00000	0.00000	0.00000	0.00000
249976	37	44	769269.1000	16.1100	0.0216585997	0.0841562017	-4.8404669261	3.86495766	D	1	10/21/2019 13:00:01	3	2	0	0	0.00000	0.00000	N/A	N/A	N/A	N/A	1	0.00000	0.00000	0.00000	0.00000	0.00000	0.00000	0.00000	0.00000	0.00000	0.00000	0.00000	0.00000	0.00000	0.00000	0.00000
249977	37	44	769269.1100	16.1200	0.0216720455	0.0842081679	-4.8397802701	3.86495766	D	1	10/21/2019 13:00:01	3	2	0	0	0.00000	0.00000	N/A	N/A	N/A	N/A	1	0.00000	0.00000	0.00000	0.00000	0.00000	0.00000	0.00000	0.00000	0.00000	0.00000	0.00000	0.00000	0.00000	0.00000	0.00000
249978	37	44	769269.1200	16.1300	0.0216854893	0.0842601247	-4.8395513848	3.86488136	D	1	10/21/2019 13:00:01	3	2	0	0	0.00000	0.00000	N/A	N/A	N/A	N/A	1	0.00000	0.00000	0.00000	0.00000	0.00000	0.00000	0.00000	0.00000	0.00000	0.00000	0.00000	0.00000	0.00000	0.00000	0.00000
249979	37	44	769269.1300	16.1400	0.0216989325	0.0843120811	-4.8402380407	3.86488136	D	1	10/21/2019 13:00:01	3	2	0	0	0.00000	0.00000	N/A	N/A	N/A	N/A	1	0.00000	0.00000	0.00000	0.00000	0.00000	0.00000	0.00000	0.00000	0.00000	0.00000	0.00000	0.00000	0.00000	0.00000	0.00000
249980	37	44	769269.1400	16.1500	0.0217123776	0.0843640427	-4.8395513848	3.86480507	D	1	10/21/2019 13:00:01	3	2	0	0	0.00000	0.00000	N/A	N/A	N/A	N/A	1	0.00000	0.00000	0.00000	0.00000	0.00000	0.00000	0.00000	0.00000	0.00000	0.00000	0.00000	0.00000	0.00000	0.00000	0.00000
249981	37	44	769269.1500	16.1600	0.0217258208	0.0844160001	-4.8395513848	3.86480507	D	1	10/21/2019 13:00:01	3	2	0	0	0.00000	0.00000	N/A	N/A	N/A	N/A	1	0.00000	0.00000	0.00000	0.00000	0.00000	0.00000	0.00000	0.00000	0.00000	0.00000	0.00000	0.00000	0.00000	0.00000	0.00000
249982	37	44	769269.1600	16.1700	0.0217392640	0.0844679565	-4.8400091554	3.86480507	D	1	10/21/2019 13:00:01	3	2	0	0	0.00000	0.00000	N/A	N/A	N/A	N/A	1	0.00000	0.00000	0.00000	0.00000	0.00000	0.00000	0.00000	0.00000	0.00000	0.00000	0.00000	0.00000	0.00000	0.00000	0.00000
249983	37	44	769269.1700	16.1800	0.0217527085	0.0845199168	-4.8400091554	3.86480507	D	1	10/21/2019 13:00:01	3	2	0	0	0.00000	0.00000	N/A	N/A	N/A	N/A	1	0.00000	0.00000	0.00000	0.00000	0.00000	0.00000	0.00000	0.00000	0.00000	0.00000	0.00000	0.00000	0.00000	0.00000	0.00000
249984	37	44	769269.1800	16.1900	0.0217661529	0.0845718780	-4.8400091554	3.86488136	D	1	10/21/2019 13:00:01	3	2	0	0	0.00000	0.00000	N/A	N/A	N/A	N/A	1	0.00000	0.00000	0.00000	0.00000	0.00000	0.00000	0.00000	0.00000	0.00000	0.00000	0.00000	0.00000	0.00000	0.00000	0.00000
249985	37	44	769269.1900	16.2000	0.0217795974	0.0846238362	-4.8402380407	3.86480507	D	1	10/21/2019 13:00:01	3	2	0	0	0.00000	0.00000	N/A	N/A	N/A	N/A	1	0.00000	0.00000	0.00000	0.00000	0.00000	0.00000	0.00000	0.00000	0.00000	0.00000	0.00000	0.00000	0.00000	0.00000	0.00000
249986	37	44	769269.2000	16.2100	0.0217930425	0.0846757959	-4.8400091554	3.86472877	D	1	10/21/2019 13:00:01	3	2	0	0	0.00000	0.00000	N/A	N/A	N/A	N/A	1	0.00000	0.00000	0.00000	0.00000	0.00000	0.00000	0.00000	0.00000	0.00000	0.00000	0.00000	0.00000	0.00000	0.00000	0.00000
249987	37	44	769269.2100	16.2200	0.0218064870	0.0847277551	-4.8397802701	3.86465248	D	1	10/21/2019 13:00:01	3	2	0	0	0.00000	0.00000	N/A	N/A	N/A	N/A	1	0.00000	0.00000	0.00000	0.00000	0.00000	0.00000	0.00000	0.00000	0.00000	0.00000	0.00000	0.00000	0.00000	0.00000	0.00000
249988	37	44	769269.2200	16.2300	0.0218199308	0.0847797109	-4.8397802701	3.86465248	D	1	10/21/2019 13:00:01	3	2	0	0	0.00000	0.00000	N/A	N/A	N/A	N/A	1	0.00000	0.00000	0.00000	0.00000	0.00000	0.00000	0.00000	0.00000	0.00000	0.00000	0.00000	0.00000	0.00000	0.00000	0.00000
249989	37	44	769269.2300	16.2400	0.0218333747	0.0848316666	-4.8400091554	3.86465248	D	1	10/21/2019 13:00:01	3	2	0	0	0.00000	0.00000	N/A	N/A	N/A	N/A	1	0.00000	0.00000	0.00000	0.00000	0.00000	0.00000	0.00000	0.00000	0.00000	0.00000	0.00000	0.00000	0.00000	0.00000	0.00000
249990	37	44	769269.2400	16.2500	0.0218468191	0.0848836248	-4.8397802701	3.86465248	D	1	10/21/2019 13:00:01	3	2	0	0	0.00000	0.00000	N/A	N/A	N/A	N/A	1	0.00000	0.00000	0.00000	0.00000	0.00000	0.00000	0.00000	0.00000	0.00000	0.00000	0.00000	0.00000	0.00000	0.00000	0.00000
249991	37	44	769269.2500	16.2600	0.0218602630	0.0849355806	-4.8400091554	3.86465248	D	1	10/21/2019 13:00:01	3	2	0	0	0.00000	0.00000	N/A	N/A	N/A	N/A	1	0.00000	0.00000	0.00000	0.00000	0.00000	0.00000	0.00000	0.00000	0.00000	0.00000	0.00000	0.00000	0.00000	0.00000	0.00000
249992	37	44	769269.2600	16.2700	0.0218737074	0.0849875388	-4.8400091554	3.86465248	D	1	10/21/2019 13:00:01	3	2	0	0	0.00000	0.00000	N/A	N/A	N/A	N/A	1	0.00000	0.00000	0.00000	0.00000	0.00000	0.00000	0.00000	0.00000	0.00000	0.00000	0.00000	0.00000	0.00000	0.00000	0.00000
249993	37	44	769269.2700	16.2800	0.0218871519	0.0850394970	-4.8397802701	3.86465248	D	1	10/21/2019 13:00:01	3	2	0	0	0.00000	0.00000	N/A	N/A	N/A	N/A	1	0.00000	0.00000	0.00000	0.00000	0.00000	0.00000	0.00000	0.00000	0.00000	0.00000	0.00000	0.00000	0.00000	0.00000	0.00000
249994	37	44	769269.2800	16.2900	0.0219005957	0.0850914527	-4.8400091554	3.86465248	D	1	10/21/2019 13:00:01	3	2	0	0	0.00000	0.00000	N/A	N/A	N/A	N/A	1	0.00000	0.00000	0.00000	0.00000	0.00000	0.00000	0.00000	0.00000	0.00000	0.00000	0.00000	0.00000	0.00000	0.00000	0.00000
249995	37	44	769269.2900	16.3000	0.0219140402	0.0851434119	-4.8397802701	3.86465248	D	1	10/21/2019 13:00:01	3	2	0	0	0.00000	0.00000	N/A	N/A	N/A	N/A	1	0.00000	0.00000	0.00000	0.00000	0.00000	0.00000	0.00000	0.00000	0.00000	0.00000	0.00000	0.00000	0.00000	0.00000	0.00000
249996	37	44	769269.3000	16.3100	0.0219274840	0.0851953687	-4.8400091554	3.86465248	D	1	10/21/2019 13:00:01	3	2	0	0	0.00000	0.00000	N/A	N/A	N/A	N/A	1	0.00000	0.00000	0.00000	0.00000	0.00000	0.00000	0.00000	0.00000	0.00000	0.00000	0.00000	0.00000	0.00000	0.00000	0.00000
249997	37	44	769269.3100	16.3200	0.0219409285	0.0852473269	-4.8400091554	3.86465248	D	1	10/21/2019 13:00:01	3	2	0	0	0.00000	0.00000	N/A	N/A	N/A	N/A	1	0.00000	0.00000	0.00000	0.00000	0.00000	0.00000	0.00000	0.00000	0.00000	0.00000	0.00000	0.00000	0.00000	0.00000	0.00000
249998	37	44	769269.3200	16.3300	0.0219543730	0.0852992861	-4.8400091554	3.86465248	D	1	10/21/2019 13:00:01	3	2	0	0	0.00000	0.00000	N/A	N/A	N/A	N/A	1	0.00000	0.00000	0.00000	0.00000	0.00000	0.00000	0.00000	0.00000	0.00000	0.00000	0.00000	0.00000	0.00000	0.00000	0.00000
249999	37	44	769269.3300	16.3400	0.0219678175	0.0853512443	-4.8400091554	3.86465248	D	1	10/21/2019 13:00:01	3	2	0	0	0.00000	0.00000	N/A	N/A	N/A	N/A	1	0.00000	0.00000	0.00000	0.00000	0.00000	0.00000	0.00000	0.00000	0.00000	0.00000	0.00000	0.00000	0.00000	0.00000	0.00000
250000	37	44	769269.3400	16.3500	0.0219812619	0.0854032015	-4.8400091554	3.86465248	D	1	10/21/2019 13:00:01	3	2	0	0	0.00000	0.00000	N/A	N/A	N/A	N/A	1	0.00000	0.00000	0.00000	0.00000	0.00000	0.00000	0.00000	0.00000	0.00000	0.00000	0.00000	0.00000	0.00000	0.00000	0.00000
250001	37	44	769269.3500	16.3600	0.0219947064	0.0854551597	-4.8400091554	3.86465248	D	1	10/21/2019 13:00:01	3	2	0	0	0.00000	0.00000	N/A	N/A	N/A	N/A	1	0.00000	0.00000	0.00000	0.00000	0.00000	0.00000	0.00000	0.00000	0.00000	0.00000	0.00000	0.00000	0.00000	0.00000	0.00000
250002	37	44	769269.3600	16.3700	0.0220081509	0.0855071179	-4.8397802701	3.86457618	D	1	10/21/2019 13:00:01	3	2	0	0	0.00000	0.00000	N/A	N/A	N/A	N/A	1	0.00000	0.00000	0.00000	0.00000	0.00000	0.00000	0.00000	0.00000	0.00000	0.00000	0.00000	0.00000	0.00000	0.00000	0.00000
250003	37	44	769269.3700	16.3800	0.0220215947	0.0855590727	-4.8400091554	3.86457618	D	1	10/21/2019 13:00:01	3	2	0	0	0.00000	0.00000	N/A	N/A	N/A	N/A	1	0.00000	0.00000	0.00000	0.00000	0.00000	0.00000	0.00000	0.00000	0.00000	0.00000	0.00000	0.00000	0.00000	0.00000	0.00000
250004	37	44	769269.3800	16.3900	0.0220350392	0.0856110288	-4.8397802701	3.86457618	D	1	10/21/2019 13:00:01	3	2	0	0	0.00000	0.00000	N/A	N/A	N/A	N/A	1	0.00000	0.00000	0.00000	0.00000	0.00000	0.00000	0.00000	0.00000	0.00000	0.00000	0.00000	0.00000	0.00000	0.00000	0.00000
250005	37	44	769269.3900	16.4000	0.0220484830	0.0856629845	-4.8402380407	3.86457618	D	1	10/21/2019 13:00:01	3	2	0	0	0.00000	0.00000	N/A	N/A	N/A	N/A	1	0.00000	0.00000	0.00000	0.00000	0.00000	0.00000	0.00000	0.00000	0.00000	0.00000	0.00000	0.00000	0.00000	0.00000	0.00000
250006	37	44	769269.4000	16.4100	0.0220619281	0.0857149452	-4.8397802701	3.86457618	D	1	10/21/2019 13:00:01	3	2	0	0	0.00000	0.00000	N/A	N/A	N/A	N/A	1	0.00000	0.00000	0.00000	0.00000	0.00000	0.00000	0.00000	0.00000	0.00000	0.00000	0.00000	0.00000	0.00000	0.00000	0.00000
250007	37	44	769269.4100	16.4200	0.0220753719	0.0857668989	-4.8397802701	3.86457618	D	1	10/21/2019 13:00:01	3	2	0	0	0.00000	0.00000	N/A	N/A	N/A	N/A	1	0.00000	0.00000	0.00000	0.00000	0.00000	0.00000	0.00000	0.00000	0.00000	0.00000	0.00000	0.00000	0.00000	0.00000	0.00000
250008	37	44	769269.4200	16.4300	0.0220888158	0.0858188505	-4.8397802701	3.86449989	D	1	10/21/2019 13:00:01	3	2	0	0	0.00000	0.00000	N/A	N/A	N/A	N/A	1	0.00000	0.00000	0.00000	0.00000	0.00000	0.00000	0.00000	0.00000	0.00000	0.00000	0.00000	0.00000	0.00000	0.00000	0.00000
250009	37	44	769269.4300	16.4400	0.0221022596	0.0858708022	-4.8397802701	3.86442359	D	1	10/21/2019 13:00:01	3	2	0	0	0.00000	0.00000	N/A	N/A	N/A	N/A	1	0.00000	0.00000	0.00000	0.00000	0.00000	0.00000	0.00000	0.00000	0.00000	0.00000	0.00000	0.00000	0.00000	0.00000	0.00000
250010	37	44	769269.4400	16.4500	0.0221157034	0.0859227559	-4.8404669261	3.86442359	D	1	10/21/2019 13:00:01	3	2	0	0	0.00000	0.00000	N/A	N/A	N/A	N/A	1	0.00000	0.00000	0.00000	0.00000	0.00000	0.00000	0.00000	0.00000	0.00000	0.00000	0.00000	0.00000	0.00000	0.00000	0.00000
250011	37	44	769269.4500	16.4600	0.0221291492	0.0859747180	-4.8400091554	3.86442359	D	1	10/21/2019 13:00:01	3	2	0	0	0.00000	0.00000	N/A	N/A	N/A	N/A	1	0.00000	0.00000	0.00000	0.00000	0.00000	0.00000	0.00000	0.00000	0.00000	0.00000	0.00000	0.00000	0.00000	0.00000	0.00000
250012	37	44	769269.4600	16.4700	0.0221425937	0.0860266752	-4.8404669261	3.86449989	D	1	10/21/2019 13:00:01	3	2	0	0	0.00000	0.00000	N/A	N/A	N/A	N/A	1	0.00000	0.00000	0.00000	0.00000	0.00000	0.00000	0.00000	0.00000	0.00000	0.00000	0.00000	0.00000	0.00000	0.00000	0.00000
250013	37	44	769269.4700	16.4800	0.0221560394	0.0860786331	-4.8400091554	3.86442359	D	1	10/21/2019 13:00:01	3	2	0	0	0.00000	0.00000	N/A	N/A	N/A	N/A	1	0.00000	0.00000	0.00000	0.00000	0.00000	0.00000	0.00000	0.00000	0.00000	0.00000	0.00000	0.00000	0.00000	0.00000	0.00000
250014	37	44	769269.4800	16.4900	0.0221694839	0.0861305872	-4.8393224994	3.86442359	D	1	10/21/2019 13:00:01	3	2	0	0	0.00000	0.00000	N/A	N/A	N/A	N/A	1	0.00000	0.00000	0.00000	0.00000	0.00000	0.00000	0.00000	0.00000	0.00000	0.00000	0.00000	0.00000	0.00000	0.00000	0.00000
250015	37	44	769269.4900	16.5000	0.0221829264	0.0861825350	-4.8400091554	3.86434730	D	1	10/21/2019 13:00:01	3	2	0	0	0.00000	0.00000	N/A	N/A	N/A	N/A	1	0.00000	0.00000	0.00000	0.00000	0.00000	0.00000	0.00000	0.00000	0.00000	0.00000	0.00000	0.00000	0.00000	0.00000	0.00000
250016	37	44	769269.5000	16.5100	0.0221963709	0.0862344881	-4.8397802701	3.86427100	D	1	10/21/2019 13:00:01	3	2	0	0	0.00000	0.00000	N/A	N/A	N/A	N/A	1	0.00000	0.00000	0.00000	0.00000	0.00000	0.00000	0.00000	0.00000	0.00000	0.00000	0.00000	0.00000	0.00000	0.00000	0.00000
250017	37	44	769269.5100	16.5200	0.0222098147	0.0862864407	-4.8395513848	3.86434730	D	1	10/21/2019 13:00:01	3	2	0	0	0.00000	0.00000	N/A	N/A	N/A	N/A	1	0.00000	0.00000	0.00000	0.00000	0.00000	0.00000	0.00000	0.00000	0.00000	0.00000	0.00000	0.00000	0.00000	0.00000	0.00000
250018	37	44	769269.5200	16.5300	0.0222232579	0.0863383879	-4.8402380407	3.86427100	D	1	10/21/2019 13:00:01	3	2	0	0	0.00000	0.00000	N/A	N/A	N/A	N/A	1	0.00000	0.00000	0.00000	0.00000	0.00000	0.00000	0.00000	0.00000	0.00000	0.00000	0.00000	0.00000	0.00000	0.00000	0.00000
250019	37	44	769269.5300	16.5400	0.0222367030	0.0863903444	-4.8397802701	3.86427100	D	1	10/21/2019 13:00:01	3	2	0	0	0.00000	0.00000	N/A	N/A	N/A	N/A	1	0.00000	0.00000	0.00000	0.00000	0.00000	0.00000	0.00000	0.00000	0.00000	0.00000	0.00000	0.00000	0.00000	0.00000	0.00000
250020	37	44	769269.5400	16.5500	0.0222501469	0.0864422951	-4.8400091554	3.86427100	D	1	10/21/2019 13:00:01	3	2	0	0	0.00000	0.00000	N/A	N/A	N/A	N/A	1	0.00000	0.00000	0.00000	0.00000	0.00000	0.00000	0.00000	0.00000	0.00000	0.00000	0.00000	0.00000	0.00000	0.00000	0.00000
250021	37	44	769269.5500	16.5600	0.0222635913	0.0864942492	-4.8400091554	3.86427100	D	1	10/21/2019 13:00:01	3	2	0	0	0.00000	0.00000	N/A	N/A	N/A	N/A	1	0.00000	0.00000	0.00000	0.00000	0.00000	0.00000	0.00000	0.00000	0.00000	0.00000	0.00000	0.00000	0.00000	0.00000	0.00000
250022	37	44	769269.5600	16.5700	0.0222770358	0.0865462002	-4.8397802701	3.86427100	D	1	10/21/2019 13:00:01	3	2	0	0	0.00000	0.00000	N/A	N/A	N/A	N/A	1	0.00000	0.00000	0.00000	0.00000	0.00000	0.00000	0.00000	0.00000	0.00000	0.00000	0.00000	0.00000	0.00000	0.00000	0.00000
250023	37	44	769269.5700	16.5800	0.0222904796	0.0865981518	-4.8400091554	3.86427100	D	1	10/21/2019 13:00:01	3	2	0	0	0.00000	0.00000	N/A	N/A	N/A	N/A	1	0.00000	0.00000	0.00000	0.00000	0.00000	0.00000	0.00000	0.00000	0.00000	0.00000	0.00000	0.00000	0.00000	0.00000	0.00000
250024	37	44	769269.5800	16.5900	0.0223039241	0.0866501018	-4.8402380407	3.86419471	D	1	10/21/2019 13:00:01	3	2	0	0	0.00000	0.00000	N/A	N/A	N/A	N/A	1	0.00000	0.00000	0.00000	0.00000	0.00000	0.00000	0.00000	0.00000	0.00000	0.00000	0.00000	0.00000	0.00000	0.00000	0.00000
250025	37	44	769269.5900	16.6000	0.0223173692	0.0867020594	-4.8397802701	3.86419471	D	1	10/21/2019 13:00:01	3	2	0	0	0.00000	0.00000	N/A	N/A	N/A	N/A	1	0.00000	0.00000	0.00000	0.00000	0.00000	0.00000	0.00000	0.00000	0.00000	0.00000	0.00000	0.00000	0.00000	0.00000	0.00000
250026	37	44	769269.6000	16.6100	0.0223308131	0.0867540090	-4.8397802701	3.86419471	D	1	10/21/2019 13:00:01	3	2	0	0	0.00000	0.00000	N/A	N/A	N/A	N/A	1	0.00000	0.00000	0.00000	0.00000	0.00000	0.00000	0.00000	0.00000	0.00000	0.00000	0.00000	0.00000	0.00000	0.00000	0.00000
250027	37	44	769269.6100	16.6200	0.0223442569	0.0868059596	-4.8395513848	3.86419471	D	1	10/21/2019 13:00:01	3	2	0	0	0.00000	0.00000	N/A	N/A	N/A	N/A	1	0.00000	0.00000	0.00000	0.00000	0.00000	0.00000	0.00000	0.00000	0.00000	0.00000	0.00000	0.00000	0.00000	0.00000	0.00000
250028	37	44	769269.6200	16.6300	0.0223577001	0.0868579027	-4.8397802701	3.86419471	D	1	10/21/2019 13:00:01	3	2	0	0	0.00000	0.00000	N/A	N/A	N/A	N/A	1	0.00000	0.00000	0.00000	0.00000	0.00000	0.00000	0.00000	0.00000	0.00000	0.00000	0.00000	0.00000	0.00000	0.00000	0.00000
250029	37	44	769269.6300	16.6400	0.0223711439	0.0869098492	-4.8400091554	3.86404211	D	1	10/21/2019 13:00:01	3	2	0	0	0.00000	0.00000	N/A	N/A	N/A	N/A	1	0.00000	0.00000	0.00000	0.00000	0.00000	0.00000	0.00000	0.00000	0.00000	0.00000	0.00000	0.00000	0.00000	0.00000	0.00000
250030	37	44	769269.6400	16.6500	0.0223845884	0.0869617971	-4.8400091554	3.86396582	D	1	10/21/2019 13:00:01	3	2	0	0	0.00000	0.00000	N/A	N/A	N/A	N/A	1	0.00000	0.00000	0.00000	0.00000	0.00000	0.00000	0.00000	0.00000	0.00000	0.00000	0.00000	0.00000	0.00000	0.00000	0.00000
250031	37	44	769269.6500	16.6600	0.0223980329	0.0870137471	-4.8402380407	3.86388952	D	1	10/21/2019 13:00:01	3	2	0	0	0.00000	0.00000	N/A	N/A	N/A	N/A	1	0.00000	0.00000	0.00000	0.00000	0.00000	0.00000	0.00000	0.00000	0.00000	0.00000	0.00000	0.00000	0.00000	0.00000	0.00000
250032	37	44	769269.6600	16.6700	0.0224114780	0.0870656996	-4.8395513848	3.86396582	D	1	10/21/2019 13:00:01	3	2	0	0	0.00000	0.00000	N/A	N/A	N/A	N/A	1	0.00000	0.00000	0.00000	0.00000	0.00000	0.00000	0.00000	0.00000	0.00000	0.00000	0.00000	0.00000	0.00000	0.00000	0.00000
250033	37	44	769269.6700	16.6800	0.0224249212	0.0871176457	-4.8402380407	3.86396582	D	1	10/21/2019 13:00:01	3	2	0	0	0.00000	0.00000	N/A	N/A	N/A	N/A	1	0.00000	0.00000	0.00000	0.00000	0.00000	0.00000	0.00000	0.00000	0.00000	0.00000	0.00000	0.00000	0.00000	0.00000	0.00000
250034	37	44	769269.6800	16.6900	0.0224383663	0.0871695971	-4.8402380407	3.86404211	D	1	10/21/2019 13:00:02	3	2	0	0	0.00000	0.00000	N/A	N/A	N/A	N/A	1	0.00000	0.00000	0.00000	0.00000	0.00000	0.00000	0.00000	0.00000	0.00000	0.00000	0.00000	0.00000	0.00000	0.00000	0.00000
250035	37	44	769269.6900	16.7000	0.0224518114	0.0872215485	-4.8400091554	3.86396582	D	1	10/21/2019 13:00:02	3	2	0	0	0.00000	0.00000	N/A	N/A	N/A	N/A	1	0.00000	0.00000	0.00000	0.00000	0.00000	0.00000	0.00000	0.00000	0.00000	0.00000	0.00000	0.00000	0.00000	0.00000	0.00000
250036	37	44	769269.7000	16.7100	0.0224652558	0.0872734955	-4.8400091554	3.86396582	D	1	10/21/2019 13:00:02	3	2	0	0	0.00000	0.00000	N/A	N/A	N/A	N/A	1	0.00000	0.00000	0.00000	0.00000	0.00000	0.00000	0.00000	0.00000	0.00000	0.00000	0.00000	0.00000	0.00000	0.00000	0.00000
250037	37	44	769269.7100	16.7200	0.0224787003	0.0873254444	-4.8395513848	3.86388952	D	1	10/21/2019 13:00:02	3	2	0	0	0.00000	0.00000	N/A	N/A	N/A	N/A	1	0.00000	0.00000	0.00000	0.00000	0.00000	0.00000	0.00000	0.00000	0.00000	0.00000	0.00000	0.00000	0.00000	0.00000	0.00000
250038	37	44	769269.7200	16.7300	0.0224921435	0.0873773895	-4.8397802701	3.86388952	D	1	10/21/2019 13:00:02	3	2	0	0	0.00000	0.00000	N/A	N/A	N/A	N/A	1	0.00000	0.00000	0.00000	0.00000	0.00000	0.00000	0.00000	0.00000	0.00000	0.00000	0.00000	0.00000	0.00000	0.00000	0.00000
250039	37	44	769269.7300	16.7400	0.0225055873	0.0874293360	-4.8397802701	3.86388952	D	1	10/21/2019 13:00:02	3	2	0	0	0.00000	0.00000	N/A	N/A	N/A	N/A	1	0.00000	0.00000	0.00000	0.00000	0.00000	0.00000	0.00000	0.00000	0.00000	0.00000	0.00000	0.00000	0.00000	0.00000	0.00000
250040	37	44	769269.7400	16.7500	0.0225190312	0.0874812825	-4.8395513848	3.86396582	D	1	10/21/2019 13:00:02	3	2	0	0	0.00000	0.00000	N/A	N/A	N/A	N/A	1	0.00000	0.00000	0.00000	0.00000	0.00000	0.00000	0.00000	0.00000	0.00000	0.00000	0.00000	0.00000	0.00000	0.00000	0.00000
250041	37	44	769269.7500	16.7600	0.0225324744	0.0875332256	-4.8404669261	3.86396582	D	1	10/21/2019 13:00:02	3	2	0	0	0.00000	0.00000	N/A	N/A	N/A	N/A	1	0.00000	0.00000	0.00000	0.00000	0.00000	0.00000	0.00000	0.00000	0.00000	0.00000	0.00000	0.00000	0.00000	0.00000	0.00000
250042	37	44	769269.7600	16.7700	0.0225459201	0.0875851795	-4.8397802701	3.86388952	D	1	10/21/2019 13:00:02	3	2	0	0	0.00000	0.00000	N/A	N/A	N/A	N/A	1	0.00000	0.00000	0.00000	0.00000	0.00000	0.00000	0.00000	0.00000	0.00000	0.00000	0.00000	0.00000	0.00000	0.00000	0.00000
250043	37	44	769269.7700	16.7800	0.0225593640	0.0876371250	-4.8402380407	3.86388952	D	1	10/21/2019 13:00:02	3	2	0	0	0.00000	0.00000	N/A	N/A	N/A	N/A	1	0.00000	0.00000	0.00000	0.00000	0.00000	0.00000	0.00000	0.00000	0.00000	0.00000	0.00000	0.00000	0.00000	0.00000	0.00000
250044	37	44	769269.7800	16.7900	0.0225728091	0.0876890754	-4.8404669261	3.86388952	D	1	10/21/2019 13:00:02	3	2	0	0	0.00000	0.00000	N/A	N/A	N/A	N/A	1	0.00000	0.00000	0.00000	0.00000	0.00000	0.00000	0.00000	0.00000	0.00000	0.00000	0.00000	0.00000	0.00000	0.00000	0.00000
250045	37	44	769269.7900	16.8000	0.0225862548	0.0877410272	-4.8393224994	3.86388952	D	1	10/21/2019 13:00:02	3	2	0	0	0.00000	0.00000	N/A	N/A	N/A	N/A	1	0.00000	0.00000	0.00000	0.00000	0.00000	0.00000	0.00000	0.00000	0.00000	0.00000	0.00000	0.00000	0.00000	0.00000	0.00000
250046	37	44	769269.8000	16.8100	0.0225996974	0.0877929657	-4.8400091554	3.86381323	D	1	10/21/2019 13:00:02	3	2	0	0	0.00000	0.00000	N/A	N/A	N/A	N/A	1	0.00000	0.00000	0.00000	0.00000	0.00000	0.00000	0.00000	0.00000	0.00000	0.00000	0.00000	0.00000	0.00000	0.00000	0.00000
250047	37	44	769269.8100	16.8200	0.0226131418	0.0878449137	-4.8397802701	3.86381323	D	1	10/21/2019 13:00:02	3	2	0	0	0.00000	0.00000	N/A	N/A	N/A	N/A	1	0.00000	0.00000	0.00000	0.00000	0.00000	0.00000	0.00000	0.00000	0.00000	0.00000	0.00000	0.00000	0.00000	0.00000	0.00000
250048	37	44	769269.8200	16.8300	0.0226265857	0.0878968571	-4.8400091554	3.86373693	D	1	10/21/2019 13:00:02	3	2	0	0	0.00000	0.00000	N/A	N/A	N/A	N/A	1	0.00000	0.00000	0.00000	0.00000	0.00000	0.00000	0.00000	0.00000	0.00000	0.00000	0.00000	0.00000	0.00000	0.00000	0.00000
250049	37	44	769269.8300	16.8400	0.0226400301	0.0879488020	-4.8397802701	3.86373693	D	1	10/21/2019 13:00:02	3	2	0	0	0.00000	0.00000	N/A	N/A	N/A	N/A	1	0.00000	0.00000	0.00000	0.00000	0.00000	0.00000	0.00000	0.00000	0.00000	0.00000	0.00000	0.00000	0.00000	0.00000	0.00000
250050	37	44	769269.8400	16.8500	0.0226534740	0.0880007454	-4.8400091554	3.86373693	D	1	10/21/2019 13:00:02	3	2	0	0	0.00000	0.00000	N/A	N/A	N/A	N/A	1	0.00000	0.00000	0.00000	0.00000	0.00000	0.00000	0.00000	0.00000	0.00000	0.00000	0.00000	0.00000	0.00000	0.00000	0.00000
250051	37	44	769269.8500	16.8600	0.0226669184	0.0880526934	-4.8397802701	3.86373693	D	1	10/21/2019 13:00:02	3	2	0	0	0.00000	0.00000	N/A	N/A	N/A	N/A	1	0.00000	0.00000	0.00000	0.00000	0.00000	0.00000	0.00000	0.00000	0.00000	0.00000	0.00000	0.00000	0.00000	0.00000	0.00000
250052	37	44	769269.8600	16.8700	0.0226803623	0.0881046368	-4.8393224994	3.86373693	D	1	10/21/2019 13:00:02	3	2	0	0	0.00000	0.00000	N/A	N/A	N/A	N/A	1	0.00000	0.00000	0.00000	0.00000	0.00000	0.00000	0.00000	0.00000	0.00000	0.00000	0.00000	0.00000	0.00000	0.00000	0.00000
250053	37	44	769269.8700	16.8800	0.0226938048	0.0881565743	-4.8402380407	3.86373693	D	1	10/21/2019 13:00:02	3	2	0	0	0.00000	0.00000	N/A	N/A	N/A	N/A	1	0.00000	0.00000	0.00000	0.00000	0.00000	0.00000	0.00000	0.00000	0.00000	0.00000	0.00000	0.00000	0.00000	0.00000	0.00000
250054	37	44	769269.8800	16.8900	0.0227072499	0.0882085247	-4.8397802701	3.86373693	D	1	10/21/2019 13:00:02	3	2	0	0	0.00000	0.00000	N/A	N/A	N/A	N/A	1	0.00000	0.00000	0.00000	0.00000	0.00000	0.00000	0.00000	0.00000	0.00000	0.00000	0.00000	0.00000	0.00000	0.00000	0.00000
250055	37	44	769269.8900	16.9000	0.0227206938	0.0882604651	-4.8400091554	3.86366064	D	1	10/21/2019 13:00:02	3	2	0	0	0.00000	0.00000	N/A	N/A	N/A	N/A	1	0.00000	0.00000	0.00000	0.00000	0.00000	0.00000	0.00000	0.00000	0.00000	0.00000	0.00000	0.00000	0.00000	0.00000	0.00000
250056	37	44	769269.9000	16.9100	0.0227341382	0.0883124099	-4.8404669261	3.86366064	D	1	10/21/2019 13:00:02	3	2	0	0	0.00000	0.00000	N/A	N/A	N/A	N/A	1	0.00000	0.00000	0.00000	0.00000	0.00000	0.00000	0.00000	0.00000	0.00000	0.00000	0.00000	0.00000	0.00000	0.00000	0.00000
250057	37	44	769269.9100	16.9200	0.0227475840	0.0883643546	-4.8397802701	3.86358434	D	1	10/21/2019 13:00:02	3	2	0	0	0.00000	0.00000	N/A	N/A	N/A	N/A	1	0.00000	0.00000	0.00000	0.00000	0.00000	0.00000	0.00000	0.00000	0.00000	0.00000	0.00000	0.00000	0.00000	0.00000	0.00000
250058	37	44	769269.9200	16.9300	0.0227610278	0.0884162980	-4.8400091554	3.86350805	D	1	10/21/2019 13:00:02	3	2	0	0	0.00000	0.00000	N/A	N/A	N/A	N/A	1	0.00000	0.00000	0.00000	0.00000	0.00000	0.00000	0.00000	0.00000	0.00000	0.00000	0.00000	0.00000	0.00000	0.00000	0.00000
250059	37	44	769269.9300	16.9400	0.0227744723	0.0884682419	-4.8402380407	3.86350805	D	1	10/21/2019 13:00:02	3	2	0	0	0.00000	0.00000	N/A	N/A	N/A	N/A	1	0.00000	0.00000	0.00000	0.00000	0.00000	0.00000	0.00000	0.00000	0.00000	0.00000	0.00000	0.00000	0.00000	0.00000	0.00000
250060	37	44	769269.9400	16.9500	0.0227879174	0.0885201902	-4.8402380407	3.86358434	D	1	10/21/2019 13:00:02	3	2	0	0	0.00000	0.00000	N/A	N/A	N/A	N/A	1	0.00000	0.00000	0.00000	0.00000	0.00000	0.00000	0.00000	0.00000	0.00000	0.00000	0.00000	0.00000	0.00000	0.00000	0.00000
250061	37	44	769269.9500	16.9600	0.0228013625	0.0885721355	-4.8402380407	3.86358434	D	1	10/21/2019 13:00:02	3	2	0	0	0.00000	0.00000	N/A	N/A	N/A	N/A	1	0.00000	0.00000	0.00000	0.00000	0.00000	0.00000	0.00000	0.00000	0.00000	0.00000	0.00000	0.00000	0.00000	0.00000	0.00000
250062	37	44	769269.9600	16.9700	0.0228148076	0.0886240777	-4.8400091554	3.86350805	D	1	10/21/2019 13:00:02	3	2	0	0	0.00000	0.00000	N/A	N/A	N/A	N/A	1	0.00000	0.00000	0.00000	0.00000	0.00000	0.00000	0.00000	0.00000	0.00000	0.00000	0.00000	0.00000	0.00000	0.00000	0.00000
250063	37	44	769269.9700	16.9800	0.0228282521	0.0886760225	-4.8397802701	3.86350805	D	1	10/21/2019 13:00:02	3	2	0	0	0.00000	0.00000	N/A	N/A	N/A	N/A	1	0.00000	0.00000	0.00000	0.00000	0.00000	0.00000	0.00000	0.00000	0.00000	0.00000	0.00000	0.00000	0.00000	0.00000	0.00000
250064	37	44	769269.9800	16.9900	0.0228416959	0.0887279609	-4.8395513848	3.86343175	D	1	10/21/2019 13:00:02	3	2	0	0	0.00000	0.00000	N/A	N/A	N/A	N/A	1	0.00000	0.00000	0.00000	0.00000	0.00000	0.00000	0.00000	0.00000	0.00000	0.00000	0.00000	0.00000	0.00000	0.00000	0.00000
250065	37	44	769269.9900	17.0000	0.0228551391	0.0887798957	-4.8400091554	3.86335546	D	1	10/21/2019 13:00:02	3	2	0	0	0.00000	0.00000	N/A	N/A	N/A	N/A	1	0.00000	0.00000	0.00000	0.00000	0.00000	0.00000	0.00000	0.00000	0.00000	0.00000	0.00000	0.00000	0.00000	0.00000	0.00000
250066	37	44	769270.0000	17.0100	0.0228685836	0.0888318395	-4.8400091554	3.86343175	D	1	10/21/2019 13:00:02	3	2	0	0	0.00000	0.00000	N/A	N/A	N/A	N/A	1	0.00000	0.00000	0.00000	0.00000	0.00000	0.00000	0.00000	0.00000	0.00000	0.00000	0.00000	0.00000	0.00000	0.00000	0.00000
250067	37	44	769270.0100	17.0200	0.0228820281	0.0888837803	-4.8397802701	3.86335546	D	1	10/21/2019 13:00:02	3	2	0	0	0.00000	0.00000	N/A	N/A	N/A	N/A	1	0.00000	0.00000	0.00000	0.00000	0.00000	0.00000	0.00000	0.00000	0.00000	0.00000	0.00000	0.00000	0.00000	0.00000	0.00000
250068	37	44	769270.0200	17.0300	0.0228954719	0.0889357176	-4.8400091554	3.86335546	D	1	10/21/2019 13:00:02	3	2	0	0	0.00000	0.00000	N/A	N/A	N/A	N/A	1	0.00000	0.00000	0.00000	0.00000	0.00000	0.00000	0.00000	0.00000	0.00000	0.00000	0.00000	0.00000	0.00000	0.00000	0.00000
250069	37	44	769270.0300	17.0400	0.0229089164	0.0889876573	-4.8397802701	3.86335546	D	1	10/21/2019 13:00:02	3	2	0	0	0.00000	0.00000	N/A	N/A	N/A	N/A	1	0.00000	0.00000	0.00000	0.00000	0.00000	0.00000	0.00000	0.00000	0.00000	0.00000	0.00000	0.00000	0.00000	0.00000	0.00000
250070	37	44	769270.0400	17.0500	0.0229223602	0.0890395997	-4.8395513848	3.86335546	D	1	10/21/2019 13:00:02	3	2	0	0	0.00000	0.00000	N/A	N/A	N/A	N/A	1	0.00000	0.00000	0.00000	0.00000	0.00000	0.00000	0.00000	0.00000	0.00000	0.00000	0.00000	0.00000	0.00000	0.00000	0.00000
250071	37	44	769270.0500	17.0600	0.0229358034	0.0890915387	-4.8400091554	3.86343175	D	1	10/21/2019 13:00:02	3	2	0	0	0.00000	0.00000	N/A	N/A	N/A	N/A	1	0.00000	0.00000	0.00000	0.00000	0.00000	0.00000	0.00000	0.00000	0.00000	0.00000	0.00000	0.00000	0.00000	0.00000	0.00000
250072	37	44	769270.0600	17.0700	0.0229492479	0.0891434794	-4.8400091554	3.86343175	D	1	10/21/2019 13:00:02	3	2	0	0	0.00000	0.00000	N/A	N/A	N/A	N/A	1	0.00000	0.00000	0.00000	0.00000	0.00000	0.00000	0.00000	0.00000	0.00000	0.00000	0.00000	0.00000	0.00000	0.00000	0.00000
250073	37	44	769270.0700	17.0800	0.0229626923	0.0891954233	-4.8402380407	3.86350805	D	1	10/21/2019 13:00:02	3	2	0	0	0.00000	0.00000	N/A	N/A	N/A	N/A	1	0.00000	0.00000	0.00000	0.00000	0.00000	0.00000	0.00000	0.00000	0.00000	0.00000	0.00000	0.00000	0.00000	0.00000	0.00000
250074	37	44	769270.0800	17.0900	0.0229761374	0.0892473696	-4.8402380407	3.86350805	D	1	10/21/2019 13:00:02	3	2	0	0	0.00000	0.00000	N/A	N/A	N/A	N/A	1	0.00000	0.00000	0.00000	0.00000	0.00000	0.00000	0.00000	0.00000	0.00000	0.00000	0.00000	0.00000	0.00000	0.00000	0.00000
250075	37	44	769270.0900	17.1000	0.0229895825	0.0892993148	-4.8397802701	3.86350805	D	1	10/21/2019 13:00:02	3	2	0	0	0.00000	0.00000	N/A	N/A	N/A	N/A	1	0.00000	0.00000	0.00000	0.00000	0.00000	0.00000	0.00000	0.00000	0.00000	0.00000	0.00000	0.00000	0.00000	0.00000	0.00000
250076	37	44	769270.1000	17.1100	0.0230030264	0.0893512511	-4.8400091554	3.86343175	D	1	10/21/2019 13:00:02	3	2	0	0	0.00000	0.00000	N/A	N/A	N/A	N/A	1	0.00000	0.00000	0.00000	0.00000	0.00000	0.00000	0.00000	0.00000	0.00000	0.00000	0.00000	0.00000	0.00000	0.00000	0.00000
250077	37	44	769270.1100	17.1200	0.0230164708	0.0894031888	-4.8397802701	3.86335546	D	1	10/21/2019 13:00:02	3	2	0	0	0.00000	0.00000	N/A	N/A	N/A	N/A	1	0.00000	0.00000	0.00000	0.00000	0.00000	0.00000	0.00000	0.00000	0.00000	0.00000	0.00000	0.00000	0.00000	0.00000	0.00000
250078	37	44	769270.1200	17.1300	0.0230299147	0.0894551292	-4.8400091554	3.86327916	D	1	10/21/2019 13:00:02	3	2	0	0	0.00000	0.00000	N/A	N/A	N/A	N/A	1	0.00000	0.00000	0.00000	0.00000	0.00000	0.00000	0.00000	0.00000	0.00000	0.00000	0.00000	0.00000	0.00000	0.00000	0.00000
250079	37	44	769270.1300	17.1400	0.0230433591	0.0895070699	-4.8400091554	3.86327916	D	1	10/21/2019 13:00:02	3	2	0	0	0.00000	0.00000	N/A	N/A	N/A	N/A	1	0.00000	0.00000	0.00000	0.00000	0.00000	0.00000	0.00000	0.00000	0.00000	0.00000	0.00000	0.00000	0.00000	0.00000	0.00000
250080	37	44	769270.1400	17.1500	0.0230568036	0.0895590086	-4.8400091554	3.86327916	D	1	10/21/2019 13:00:02	3	2	0	0	0.00000	0.00000	N/A	N/A	N/A	N/A	1	0.00000	0.00000	0.00000	0.00000	0.00000	0.00000	0.00000	0.00000	0.00000	0.00000	0.00000	0.00000	0.00000	0.00000	0.00000
250081	37	44	769270.1500	17.1600	0.0230702481	0.0896109525	-4.8397802701	3.86335546	D	1	10/21/2019 13:00:02	3	2	0	0	0.00000	0.00000	N/A	N/A	N/A	N/A	1	0.00000	0.00000	0.00000	0.00000	0.00000	0.00000	0.00000	0.00000	0.00000	0.00000	0.00000	0.00000	0.00000	0.00000	0.00000
250082	37	44	769270.1600	17.1700	0.0230836919	0.0896628877	-4.8400091554	3.86327916	D	1	10/21/2019 13:00:02	3	2	0	0	0.00000	0.00000	N/A	N/A	N/A	N/A	1	0.00000	0.00000	0.00000	0.00000	0.00000	0.00000	0.00000	0.00000	0.00000	0.00000	0.00000	0.00000	0.00000	0.00000	0.00000
250083	37	44	769270.1700	17.1800	0.0230971364	0.0897148285	-4.8402380407	3.86327916	D	1	10/21/2019 13:00:02	3	2	0	0	0.00000	0.00000	N/A	N/A	N/A	N/A	1	0.00000	0.00000	0.00000	0.00000	0.00000	0.00000	0.00000	0.00000	0.00000	0.00000	0.00000	0.00000	0.00000	0.00000	0.00000
250084	37	44	769270.1800	17.1900	0.0231105815	0.0897667696	-4.8395513848	3.86327916	D	1	10/21/2019 13:00:02	3	2	0	0	0.00000	0.00000	N/A	N/A	N/A	N/A	1	0.00000	0.00000	0.00000	0.00000	0.00000	0.00000	0.00000	0.00000	0.00000	0.00000	0.00000	0.00000	0.00000	0.00000	0.00000
250085	37	44	769270.1900	17.2000	0.0231240247	0.0898187035	-4.8400091554	3.86320287	D	1	10/21/2019 13:00:02	3	2	0	0	0.00000	0.00000	N/A	N/A	N/A	N/A	1	0.00000	0.00000	0.00000	0.00000	0.00000	0.00000	0.00000	0.00000	0.00000	0.00000	0.00000	0.00000	0.00000	0.00000	0.00000
250086	37	44	769270.2000	17.2100	0.0231374692	0.0898706422	-4.8400091554	3.86320287	D	1	10/21/2019 13:00:02	3	2	0	0	0.00000	0.00000	N/A	N/A	N/A	N/A	1	0.00000	0.00000	0.00000	0.00000	0.00000	0.00000	0.00000	0.00000	0.00000	0.00000	0.00000	0.00000	0.00000	0.00000	0.00000
250087	37	44	769270.2100	17.2200	0.0231509136	0.0899225809	-4.8395513848	3.86320287	D	1	10/21/2019 13:00:02	3	2	0	0	0.00000	0.00000	N/A	N/A	N/A	N/A	1	0.00000	0.00000	0.00000	0.00000	0.00000	0.00000	0.00000	0.00000	0.00000	0.00000	0.00000	0.00000	0.00000	0.00000	0.00000
250088	37	44	769270.2200	17.2300	0.0231643568	0.0899745147	-4.8400091554	3.86320287	D	1	10/21/2019 13:00:02	3	2	0	0	0.00000	0.00000	N/A	N/A	N/A	N/A	1	0.00000	0.00000	0.00000	0.00000	0.00000	0.00000	0.00000	0.00000	0.00000	0.00000	0.00000	0.00000	0.00000	0.00000	0.00000
250089	37	44	769270.2300	17.2400	0.0231778013	0.0900264513	-4.8395513848	3.86312657	D	1	10/21/2019 13:00:02	3	2	0	0	0.00000	0.00000	N/A	N/A	N/A	N/A	1	0.00000	0.00000	0.00000	0.00000	0.00000	0.00000	0.00000	0.00000	0.00000	0.00000	0.00000	0.00000	0.00000	0.00000	0.00000
250090	37	44	769270.2400	17.2500	0.0231912445	0.0900783862	-4.8397802701	3.86312657	D	1	10/21/2019 13:00:02	3	2	0	0	0.00000	0.00000	N/A	N/A	N/A	N/A	1	0.00000	0.00000	0.00000	0.00000	0.00000	0.00000	0.00000	0.00000	0.00000	0.00000	0.00000	0.00000	0.00000	0.00000	0.00000
250091	37	44	769270.2500	17.2600	0.0232046883	0.0901303183	-4.8400091554	3.86305028	D	1	10/21/2019 13:00:02	3	2	0	0	0.00000	0.00000	N/A	N/A	N/A	N/A	1	0.00000	0.00000	0.00000	0.00000	0.00000	0.00000	0.00000	0.00000	0.00000	0.00000	0.00000	0.00000	0.00000	0.00000	0.00000
250092	37	44	769270.2600	17.2700	0.0232181328	0.0901822560	-4.8400091554	3.86305028	D	1	10/21/2019 13:00:02	3	2	0	0	0.00000	0.00000	N/A	N/A	N/A	N/A	1	0.00000	0.00000	0.00000	0.00000	0.00000	0.00000	0.00000	0.00000	0.00000	0.00000	0.00000	0.00000	0.00000	0.00000	0.00000
250093	37	44	769270.2700	17.2800	0.0232315773	0.0902341917	-4.8402380407	3.86305028	D	1	10/21/2019 13:00:02	3	2	0	0	0.00000	0.00000	N/A	N/A	N/A	N/A	1	0.00000	0.00000	0.00000	0.00000	0.00000	0.00000	0.00000	0.00000	0.00000	0.00000	0.00000	0.00000	0.00000	0.00000	0.00000
250094	37	44	769270.2800	17.2900	0.0232450224	0.0902861287	-4.8393224994	3.86297398	D	1	10/21/2019 13:00:02	3	2	0	0	0.00000	0.00000	N/A	N/A	N/A	N/A	1	0.00000	0.00000	0.00000	0.00000	0.00000	0.00000	0.00000	0.00000	0.00000	0.00000	0.00000	0.00000	0.00000	0.00000	0.00000
250095	37	44	769270.2900	17.3000	0.0232584649	0.0903380549	-4.8402380407	3.86289769	D	1	10/21/2019 13:00:02	3	2	0	0	0.00000	0.00000	N/A	N/A	N/A	N/A	1	0.00000	0.00000	0.00000	0.00000	0.00000	0.00000	0.00000	0.00000	0.00000	0.00000	0.00000	0.00000	0.00000	0.00000	0.00000
250096	37	44	769270.3000	17.3100	0.0232719100	0.0903899900	-4.8404669261	3.86282139	D	1	10/21/2019 13:00:02	3	2	0	0	0.00000	0.00000	N/A	N/A	N/A	N/A	1	0.00000	0.00000	0.00000	0.00000	0.00000	0.00000	0.00000	0.00000	0.00000	0.00000	0.00000	0.00000	0.00000	0.00000	0.00000
250097	37	44	769270.3100	17.3200	0.0232853558	0.0904419295	-4.8400091554	3.86282139	D	1	10/21/2019 13:00:02	3	2	0	0	0.00000	0.00000	N/A	N/A	N/A	N/A	1	0.00000	0.00000	0.00000	0.00000	0.00000	0.00000	0.00000	0.00000	0.00000	0.00000	0.00000	0.00000	0.00000	0.00000	0.00000
250098	37	44	769270.3200	17.3300	0.0232988003	0.0904938661	-4.8406958114	3.86282139	D	1	10/21/2019 13:00:02	3	2	0	0	0.00000	0.00000	N/A	N/A	N/A	N/A	1	0.00000	0.00000	0.00000	0.00000	0.00000	0.00000	0.00000	0.00000	0.00000	0.00000	0.00000	0.00000	0.00000	0.00000	0.00000
250099	37	44	769270.3300	17.3400	0.0233122466	0.0905458071	-4.8397802701	3.86282139	D	1	10/21/2019 13:00:02	3	2	0	0	0.00000	0.00000	N/A	N/A	N/A	N/A	1	0.00000	0.00000	0.00000	0.00000	0.00000	0.00000	0.00000	0.00000	0.00000	0.00000	0.00000	0.00000	0.00000	0.00000	0.00000
250100	37	44	769270.3400	17.3500	0.0233256905	0.0905977434	-4.8395513848	3.86297398	D	1	10/21/2019 13:00:02	3	2	0	0	0.00000	0.00000	N/A	N/A	N/A	N/A	1	0.00000	0.00000	0.00000	0.00000	0.00000	0.00000	0.00000	0.00000	0.00000	0.00000	0.00000	0.00000	0.00000	0.00000	0.00000
250101	37	44	769270.3500	17.3600	0.0233391337	0.0906496720	-4.8397802701	3.86297398	D	1	10/21/2019 13:00:02	3	2	0	0	0.00000	0.00000	N/A	N/A	N/A	N/A	1	0.00000	0.00000	0.00000	0.00000	0.00000	0.00000	0.00000	0.00000	0.00000	0.00000	0.00000	0.00000	0.00000	0.00000	0.00000
250102	37	44	769270.3600	17.3700	0.0233525775	0.0907016052	-4.8395513848	3.86289769	D	1	10/21/2019 13:00:02	3	2	0	0	0.00000	0.00000	N/A	N/A	N/A	N/A	1	0.00000	0.00000	0.00000	0.00000	0.00000	0.00000	0.00000	0.00000	0.00000	0.00000	0.00000	0.00000	0.00000	0.00000	0.00000
250103	37	44	769270.3700	17.3800	0.0233660207	0.0907535359	-4.8395513848	3.86297398	D	1	10/21/2019 13:00:02	3	2	0	0	0.00000	0.00000	N/A	N/A	N/A	N/A	1	0.00000	0.00000	0.00000	0.00000	0.00000	0.00000	0.00000	0.00000	0.00000	0.00000	0.00000	0.00000	0.00000	0.00000	0.00000
250104	37	44	769270.3800	17.3900	0.0233794639	0.0908054677	-4.8397802701	3.86289769	D	1	10/21/2019 13:00:02	3	2	0	0	0.00000	0.00000	N/A	N/A	N/A	N/A	1	0.00000	0.00000	0.00000	0.00000	0.00000	0.00000	0.00000	0.00000	0.00000	0.00000	0.00000	0.00000	0.00000	0.00000	0.00000
250105	37	44	769270.3900	17.4000	0.0233929077	0.0908573988	-4.8402380407	3.86289769	D	1	10/21/2019 13:00:02	3	2	0	0	0.00000	0.00000	N/A	N/A	N/A	N/A	1	0.00000	0.00000	0.00000	0.00000	0.00000	0.00000	0.00000	0.00000	0.00000	0.00000	0.00000	0.00000	0.00000	0.00000	0.00000
250106	37	44	769270.4000	17.4100	0.0234063528	0.0909093359	-4.8400091554	3.86289769	D	1	10/21/2019 13:00:02	3	2	0	0	0.00000	0.00000	N/A	N/A	N/A	N/A	1	0.00000	0.00000	0.00000	0.00000	0.00000	0.00000	0.00000	0.00000	0.00000	0.00000	0.00000	0.00000	0.00000	0.00000	0.00000
250107	37	44	769270.4100	17.4200	0.0234197973	0.0909612695	-4.8402380407	3.86289769	D	1	10/21/2019 13:00:02	3	2	0	0	0.00000	0.00000	N/A	N/A	N/A	N/A	1	0.00000	0.00000	0.00000	0.00000	0.00000	0.00000	0.00000	0.00000	0.00000	0.00000	0.00000	0.00000	0.00000	0.00000	0.00000
250108	37	44	769270.4200	17.4300	0.0234332424	0.0910132024	-4.8402380407	3.86274510	D	1	10/21/2019 13:00:02	3	2	0	0	0.00000	0.00000	N/A	N/A	N/A	N/A	1	0.00000	0.00000	0.00000	0.00000	0.00000	0.00000	0.00000	0.00000	0.00000	0.00000	0.00000	0.00000	0.00000	0.00000	0.00000
250109	37	44	769270.4300	17.4400	0.0234466875	0.0910651395	-4.8397802701	3.86274510	D	1	10/21/2019 13:00:02	3	2	0	0	0.00000	0.00000	N/A	N/A	N/A	N/A	1	0.00000	0.00000	0.00000	0.00000	0.00000	0.00000	0.00000	0.00000	0.00000	0.00000	0.00000	0.00000	0.00000	0.00000	0.00000
250110	37	44	769270.4400	17.4500	0.0234601314	0.0911170696	-4.8400091554	3.86274510	D	1	10/21/2019 13:00:02	3	2	0	0	0.00000	0.00000	N/A	N/A	N/A	N/A	1	0.00000	0.00000	0.00000	0.00000	0.00000	0.00000	0.00000	0.00000	0.00000	0.00000	0.00000	0.00000	0.00000	0.00000	0.00000
250111	37	44	769270.4500	17.4600	0.0234735758	0.0911690011	-4.8397802701	3.86266880	D	1	10/21/2019 13:00:02	3	2	0	0	0.00000	0.00000	N/A	N/A	N/A	N/A	1	0.00000	0.00000	0.00000	0.00000	0.00000	0.00000	0.00000	0.00000	0.00000	0.00000	0.00000	0.00000	0.00000	0.00000	0.00000
250112	37	44	769270.4600	17.4700	0.0234870197	0.0912209302	-4.8397802701	3.86274510	D	1	10/21/2019 13:00:02	3	2	0	0	0.00000	0.00000	N/A	N/A	N/A	N/A	1	0.00000	0.00000	0.00000	0.00000	0.00000	0.00000	0.00000	0.00000	0.00000	0.00000	0.00000	0.00000	0.00000	0.00000	0.00000
250113	37	44	769270.4700	17.4800	0.0235004635	0.0912728593	-4.8404669261	3.86266880	D	1	10/21/2019 13:00:02	3	2	0	0	0.00000	0.00000	N/A	N/A	N/A	N/A	1	0.00000	0.00000	0.00000	0.00000	0.00000	0.00000	0.00000	0.00000	0.00000	0.00000	0.00000	0.00000	0.00000	0.00000	0.00000
250114	37	44	769270.4800	17.4900	0.0235139092	0.0913247988	-4.8395513848	3.86266880	D	1	10/21/2019 13:00:02	3	2	0	0	0.00000	0.00000	N/A	N/A	N/A	N/A	1	0.00000	0.00000	0.00000	0.00000	0.00000	0.00000	0.00000	0.00000	0.00000	0.00000	0.00000	0.00000	0.00000	0.00000	0.00000
250115	37	44	769270.4900	17.5000	0.0235273524	0.0913767254	-4.8404669261	3.86266880	D	1	10/21/2019 13:00:02	3	2	0	0	0.00000	0.00000	N/A	N/A	N/A	N/A	1	0.00000	0.00000	0.00000	0.00000	0.00000	0.00000	0.00000	0.00000	0.00000	0.00000	0.00000	0.00000	0.00000	0.00000	0.00000
250116	37	44	769270.5000	17.5100	0.0235407982	0.0914286629	-4.8395513848	3.86274510	D	1	10/21/2019 13:00:02	3	2	0	0	0.00000	0.00000	N/A	N/A	N/A	N/A	1	0.00000	0.00000	0.00000	0.00000	0.00000	0.00000	0.00000	0.00000	0.00000	0.00000	0.00000	0.00000	0.00000	0.00000	0.00000
250117	37	44	769270.5100	17.5200	0.0235542414	0.0914805906	-4.8397802701	3.86274510	D	1	10/21/2019 13:00:02	3	2	0	0	0.00000	0.00000	N/A	N/A	N/A	N/A	1	0.00000	0.00000	0.00000	0.00000	0.00000	0.00000	0.00000	0.00000	0.00000	0.00000	0.00000	0.00000	0.00000	0.00000	0.00000
250118	37	44	769270.5200	17.5300	0.0235676852	0.0915325186	-4.8402380407	3.86266880	D	1	10/21/2019 13:00:02	3	2	0	0	0.00000	0.00000	N/A	N/A	N/A	N/A	1	0.00000	0.00000	0.00000	0.00000	0.00000	0.00000	0.00000	0.00000	0.00000	0.00000	0.00000	0.00000	0.00000	0.00000	0.00000
250119	37	44	769270.5300	17.5400	0.0235811303	0.0915844506	-4.8397802701	3.86259251	D	1	10/21/2019 13:00:02	3	2	0	0	0.00000	0.00000	N/A	N/A	N/A	N/A	1	0.00000	0.00000	0.00000	0.00000	0.00000	0.00000	0.00000	0.00000	0.00000	0.00000	0.00000	0.00000	0.00000	0.00000	0.00000
250120	37	44	769270.5400	17.5500	0.0235945741	0.0916363796	-4.8402380407	3.86259251	D	1	10/21/2019 13:00:02	3	2	0	0	0.00000	0.00000	N/A	N/A	N/A	N/A	1	0.00000	0.00000	0.00000	0.00000	0.00000	0.00000	0.00000	0.00000	0.00000	0.00000	0.00000	0.00000	0.00000	0.00000	0.00000
250121	37	44	769270.5500	17.5600	0.0236080193	0.0916883126	-4.8393224994	3.86259251	D	1	10/21/2019 13:00:02	3	2	0	0	0.00000	0.00000	N/A	N/A	N/A	N/A	1	0.00000	0.00000	0.00000	0.00000	0.00000	0.00000	0.00000	0.00000	0.00000	0.00000	0.00000	0.00000	0.00000	0.00000	0.00000
250122	37	44	769270.5600	17.5700	0.0236214618	0.0917402337	-4.8400091554	3.86251621	D	1	10/21/2019 13:00:02	3	2	0	0	0.00000	0.00000	N/A	N/A	N/A	N/A	1	0.00000	0.00000	0.00000	0.00000	0.00000	0.00000	0.00000	0.00000	0.00000	0.00000	0.00000	0.00000	0.00000	0.00000	0.00000
250123	37	44	769270.5700	17.5800	0.0236349063	0.0917921642	-4.8402380407	3.86251621	D	1	10/21/2019 13:00:02	3	2	0	0	0.00000	0.00000	N/A	N/A	N/A	N/A	1	0.00000	0.00000	0.00000	0.00000	0.00000	0.00000	0.00000	0.00000	0.00000	0.00000	0.00000	0.00000	0.00000	0.00000	0.00000

